Frequency (Hz),Impedance (ohms),Phase (Radians),Temperature (C),Humidity (%)
10000.0,273.2049494078081,-12092.227217055106,0,0
10010.0125,273.29549131339496,-12080.095493193408,0,0
10020.025,272.9666119091859,-12067.463315769783,0,0
10030.0375,272.79359375834974,-12055.124753766224,0,0
10040.05,273.3462598676984,-12042.134907256881,0,0
10050.0625,273.37362769987436,-12029.536760280373,0,0
10060.075,272.89253633789673,-12017.118527353747,0,0
10070.0875,273.67298353009267,-12004.393950266372,0,0
10080.1,274.4598325067172,-11991.391866329639,0,0
10090.1125,275.50926987171084,-11979.648301658113,0,0
10100.125,276.80130832322016,-11966.633532072135,0,0
10110.1375,278.3566446539805,-11954.603044535355,0,0
10120.15,280.3615212664923,-11943.21007069751,0,0
10130.1625,282.2066016198913,-11932.235939219103,0,0
10140.175,284.2961227353931,-11921.441353996672,0,0
10150.1875,286.8901257324422,-11912.003389600208,0,0
10160.2,287.8784859747504,-11902.983991042373,0,0
10170.2125,288.8341121263075,-11895.061872772687,0,0
10180.225,288.29712435866054,-11887.2670404165,0,0
10190.2375,286.6066702391573,-11879.734892222197,0,0
10200.25,283.64543759485775,-11870.527340072747,0,0
10210.2625,280.70922358395774,-11860.667205884103,0,0
10220.275,277.2175485401614,-11849.76208407061,0,0
10230.2875,274.80490862502495,-11837.74319931771,0,0
10240.3,272.4900067728795,-11825.955201077117,0,0
10250.3125,271.1209813132078,-11813.44476508295,0,0
10260.325,269.7283762251126,-11801.510273792705,0,0
10270.3375,268.54325090556176,-11789.628815049284,0,0
10280.35,267.29441769352076,-11777.858225850678,0,0
10290.3625,266.5399963529474,-11765.610103333365,0,0
10300.375,266.25165507527777,-11753.646447450286,0,0
10310.3875,265.39277571441465,-11741.323027124816,0,0
10320.4,264.8516140619911,-11729.902124257304,0,0
10330.4125,264.2276447161873,-11718.289317368102,0,0
10340.425,263.81084861408226,-11706.567015768704,0,0
10350.4375,262.9274554498934,-11694.971544061547,0,0
10360.45,262.5323549694246,-11683.013381168239,0,0
10370.4625,262.4324450656709,-11671.539221334471,0,0
10380.475,261.78829125320686,-11660.30694311721,0,0
10390.4875,261.8269061741899,-11648.249041449993,0,0
10400.5,261.31456293466044,-11637.653693127153,0,0
10410.5125,260.8259447383847,-11625.377720377617,0,0
10420.525,260.6001689590715,-11613.992234829379,0,0
10430.5375,260.0025763750346,-11602.90350924541,0,0
10440.55,260.0678044147767,-11591.697228437832,0,0
10450.5625,259.42915122796865,-11580.525687342857,0,0
10460.575,259.3624120884422,-11569.162913199954,0,0
10470.5875,259.06507552462216,-11557.590750138232,0,0
10480.6,258.94334836768024,-11546.771777335018,0,0
10490.6125,258.439376002277,-11535.4531226248,0,0
10500.625,258.0421129935479,-11524.012361819483,0,0
10510.6375,257.8703218699928,-11512.733155701004,0,0
10520.65,257.59125879253344,-11502.226159245349,0,0
10530.6625,257.34378181947835,-11490.891563286747,0,0
10540.675,257.0022228621327,-11479.931978427136,0,0
10550.6875,256.7346788244861,-11468.991163148476,0,0
10560.7,256.51299076665595,-11457.871649419676,0,0
10570.7125,256.1395581274072,-11446.856873976589,0,0
10580.725,256.3507218748642,-11435.821374676063,0,0
10590.7375,255.89388870425557,-11424.76575449845,0,0
10600.75,255.70996953043743,-11414.016314043873,0,0
10610.7625,255.51637352918172,-11403.325632140293,0,0
10620.775,255.11313727090177,-11392.39908553844,0,0
10630.7875,255.09644659748923,-11381.491536315396,0,0
10640.8,254.95724419637816,-11370.592271066072,0,0
10650.8125,254.62595703490751,-11359.496944926685,0,0
10660.825,254.7902510569253,-11349.028633064534,0,0
10670.8375,254.16760279185942,-11337.964743508432,0,0
10680.85,254.0336666046272,-11327.109506115068,0,0
10690.8625,253.36767048240964,-11316.690015080454,0,0
10700.875,253.32126774931044,-11305.539080084858,0,0
10710.8875,253.30821391129209,-11295.206086090851,0,0
10720.9,253.4238378659381,-11284.54338887701,0,0
10730.9125,252.88206581064725,-11273.561811533718,0,0
10740.925,252.8792034996065,-11263.134466245428,0,0
10750.9375,252.66574551117426,-11252.432582171159,0,0
10760.95,252.82586773829243,-11241.699598329109,0,0
10770.9625,252.3230844418588,-11231.381918222594,0,0
10780.975,252.1572709090821,-11220.78052668152,0,0
10790.9875,252.06289487290644,-11210.138480033385,0,0
10801.0,251.7014379909423,-11199.74807795474,0,0
10811.0125,251.81935604558015,-11189.128004298256,0,0
10821.025,251.80075615193962,-11178.38077920403,0,0
10831.0375,251.34219083165075,-11168.13555715803,0,0
10841.05,251.51190062712277,-11157.576204505162,0,0
10851.0625,251.75569719723887,-11146.982746553627,0,0
10861.075,251.39028087655228,-11136.38933814306,0,0
10871.0875,251.3464346394378,-11126.289846141704,0,0
10881.1,251.21461868535883,-11115.950725153676,0,0
10891.1125,251.1753742032099,-11105.81621972834,0,0
10901.125,250.57433342135084,-11095.63075799316,0,0
10911.1375,250.67430391307644,-11085.430770321229,0,0
10921.15,250.92304394985482,-11074.718314776905,0,0
10931.1625,250.56080721864453,-11064.810872988837,0,0
10941.175,250.6704771402521,-11054.63734291871,0,0
10951.1875,250.6954657588449,-11044.402410564237,0,0
10961.2,250.4718287006492,-11034.068985871889,0,0
10971.2125,250.42996161367643,-11024.146188551875,0,0
10981.225,250.63871674545544,-11013.591645880508,0,0
10991.2375,250.54910535706813,-11003.506121319351,0,0
11001.25,249.99761193707232,-10993.391529160675,0,0
11011.2625,250.02116765037468,-10983.172816852695,0,0
11021.275,249.96997303863196,-10973.445468734826,0,0
11031.2875,249.84326014292762,-10963.585380027327,0,0
11041.3,249.72382732190164,-10953.75454594064,0,0
11051.3125,249.9088177561047,-10943.281340185784,0,0
11061.325,249.7435713944788,-10933.330866883613,0,0
11071.3375,249.29721443274033,-10923.056242265871,0,0
11081.35,249.26226355984838,-10913.937140836491,0,0
11091.3625,249.35258533561972,-10903.591792712383,0,0
11101.375,248.98595789147922,-10893.845028210895,0,0
11111.3875,248.75122195208874,-10884.111807478537,0,0
11121.4,248.338885001228,-10873.941524071179,0,0
11131.4125,248.4452023533034,-10864.19484826987,0,0
11141.425,248.34459849970276,-10854.186553135803,0,0
11151.4375,248.3316536639487,-10844.62269777395,0,0
11161.45,248.11604771326827,-10834.372539115398,0,0
11171.4625,248.09045437930166,-10824.558266368067,0,0
11181.475,247.67884941549957,-10814.532624437948,0,0
11191.4875,247.53693154021238,-10804.628551816651,0,0
11201.5,247.4593340542327,-10794.930351059636,0,0
11211.5125,247.36132636770213,-10784.98676094287,0,0
11221.525,247.13351590875192,-10775.079093139357,0,0
11231.5375,247.00872295063513,-10765.431479731458,0,0
11241.55,246.94400505818876,-10755.793362646922,0,0
11251.5625,246.99766805493473,-10745.988660386587,0,0
11261.575,246.855020937333,-10736.041269187566,0,0
11271.5875,246.88211725353244,-10726.281985725602,0,0
11281.6,246.8040760276308,-10716.592072713815,0,0
11291.6125,246.56397362794817,-10706.834690335396,0,0
11301.625,246.3847576460939,-10697.25048144378,0,0
11311.6375,246.77920703136974,-10687.414806812494,0,0
11321.65,246.67012521287367,-10677.633333412154,0,0
11331.6625,246.48633065136036,-10668.16483857165,0,0
11341.675,246.3668126912288,-10658.592850725408,0,0
11351.6875,246.24408764357813,-10648.784450125884,0,0
11361.7,245.95680860313038,-10639.178093522172,0,0
11371.7125,246.32711905400112,-10629.09235161432,0,0
11381.725,246.72012106086459,-10619.758771149003,0,0
11391.7375,246.51786809027774,-10610.410383138202,0,0
11401.75,246.71159089848246,-10599.512683964707,0,0
11411.7625,246.2768745176805,-10590.803181241046,0,0
11421.775,246.421424734444,-10581.470174461312,0,0
11431.7875,246.81944628359346,-10572.096514622714,0,0
11441.8,246.80930784991443,-10562.382936118904,0,0
11451.8125,246.9549564981138,-10552.621960253506,0,0
11461.825,246.58304189470664,-10543.309137189646,0,0
11471.8375,246.9230167387227,-10533.57044813971,0,0
11481.85,247.1719051768784,-10523.83854323952,0,0
11491.8625,247.7166345339037,-10514.399492677934,0,0
11501.875,247.8901862010535,-10504.851217633586,0,0
11511.8875,248.01417715158883,-10495.909558812486,0,0
11521.9,247.9167424073879,-10486.069042928892,0,0
11531.9125,248.11828589731303,-10476.053865717877,0,0
11541.925,248.8623200179642,-10466.947345027438,0,0
11551.9375,248.63206993132675,-10457.457644997576,0,0
11561.95,249.4781674489755,-10447.916277376164,0,0
11571.9625,249.94216443087058,-10438.493196016727,0,0
11581.975,250.24380018448613,-10429.093792136387,0,0
11591.9875,250.66922487662947,-10420.036996108418,0,0
11602.0,251.0538520824342,-10410.058273542336,0,0
11612.0125,251.49627033114317,-10401.347871283293,0,0
11622.025,252.23904259472508,-10391.78023563275,0,0
11632.0375,252.48739754556874,-10382.564430472448,0,0
11642.05,253.3514778277589,-10373.412108578308,0,0
11652.0625,253.95806625804119,-10364.683733597176,0,0
11662.075,255.18383093216852,-10355.515599164462,0,0
11672.0875,255.61259158516557,-10346.387274767716,0,0
11682.1,256.0369095755534,-10338.024667532982,0,0
11692.1125,257.2255271990018,-10329.359787530477,0,0
11702.125,258.0513944479074,-10320.634058916388,0,0
11712.1375,258.65775081537475,-10311.995984821544,0,0
11722.15,259.0597354441242,-10303.751167731329,0,0
11732.1625,258.9543734925245,-10295.34439295228,0,0
11742.175,259.06122858398516,-10287.174955381059,0,0
11752.1875,259.69812384606183,-10279.055762269478,0,0
11762.2,259.564721923138,-10270.32175916914,0,0
11772.2125,259.0872322778748,-10261.446533826062,0,0
11782.225,259.06807578041895,-10252.690091058388,0,0
11792.2375,259.0230433882134,-10243.680107647157,0,0
11802.25,259.3352052263658,-10234.5884406788,0,0
11812.2625,259.6150437085848,-10225.54431804977,0,0
11822.275,259.634927167298,-10216.929766278285,0,0
11832.2875,260.0370402092181,-10207.89233394899,0,0
11842.3,260.49397795927655,-10198.17917696497,0,0
11852.3125,261.6744668364276,-10189.294090692523,0,0
11862.325,262.36596138596053,-10180.687456767564,0,0
11872.3375,262.889516626968,-10171.361935634584,0,0
11882.35,264.7121556443273,-10162.244349061435,0,0
11892.3625,265.7002227066226,-10153.956011731738,0,0
11902.375,266.8605692925892,-10145.375562128065,0,0
11912.3875,268.54171593935854,-10137.181936325018,0,0
11922.4,269.32376691902385,-10129.07395696787,0,0
11932.4125,271.1411989068063,-10121.68255060713,0,0
11942.425,271.9442319122554,-10113.84283585792,0,0
11952.4375,273.094121705227,-10107.036545467201,0,0
11962.45,274.0717150307215,-10099.650238784434,0,0
11972.4625,274.1756968050792,-10092.91673886016,0,0
11982.475,273.8669974387596,-10085.970631475097,0,0
11992.4875,273.8641296115005,-10078.897717758067,0,0
12002.5,273.19584330878695,-10071.703459123573,0,0
12012.5125,272.1812907091324,-10064.422472565893,0,0
12022.525,270.4550214788071,-10056.124974626187,0,0
12032.5375,269.8853499764649,-10047.924651196297,0,0
12042.55,268.41864469673874,-10038.85806489824,0,0
12052.5625,267.93473942429495,-10029.469122457316,0,0
12062.575,267.53674265878715,-10019.94857384803,0,0
12072.5875,267.1641744468208,-10010.622002368224,0,0
12082.6,267.64882835798886,-10000.63444355962,0,0
12092.6125,268.0375026546371,-9990.464703902759,0,0
12102.625,269.0829691073616,-9981.126315367008,0,0
12112.6375,270.258843755041,-9971.273835660848,0,0
12122.65,271.8151411283214,-9961.817154688017,0,0
12132.6625,273.2109061053847,-9952.108175215219,0,0
12142.675,275.7858655097452,-9943.263874328826,0,0
12152.6875,278.0168595295502,-9934.392244556639,0,0
12162.7,280.52722792610115,-9925.7337369855,0,0
12172.7125,283.1286562315594,-9916.974422439864,0,0
12182.725,286.0152898261909,-9908.613654908817,0,0
12192.7375,288.8526637794399,-9900.66270737196,0,0
12202.75,292.2434959232626,-9892.823475375273,0,0
12212.7625,295.64980060105097,-9885.728205490994,0,0
12222.775,298.9269444611075,-9878.811783286264,0,0
12232.7875,302.51873099806204,-9872.550993405059,0,0
12242.8,305.5117527006445,-9866.576048425242,0,0
12252.8125,309.06611062909985,-9860.815427442143,0,0
12262.825,312.3778099640016,-9855.88043551742,0,0
12272.8375,315.9165815414214,-9851.460813748601,0,0
12282.85,318.4726822238827,-9847.743665014865,0,0
12292.8625,320.42437464249,-9843.981854692476,0,0
12302.875,322.96356487814217,-9841.01936530818,0,0
12312.8875,323.9038156301891,-9838.623617402742,0,0
12322.9,324.7543897262813,-9835.993546764352,0,0
12332.9125,324.26225288613495,-9833.944569088995,0,0
12342.925,323.4203166487428,-9831.669222389763,0,0
12352.9375,321.59175659007343,-9829.493154133366,0,0
12362.95,319.25841174636065,-9826.226211777499,0,0
12372.9625,315.8295958015382,-9823.62226981472,0,0
12382.975,312.5243840732877,-9819.745496719617,0,0
12392.9875,308.0044838482749,-9815.100679892868,0,0
12403.0,303.68358569222806,-9810.501733376599,0,0
12413.0125,299.5590748851284,-9804.298363279871,0,0
12423.025,295.17752013852976,-9797.480110214958,0,0
12433.0375,290.62376032626565,-9790.504389233456,0,0
12443.05,286.796536999058,-9782.846044262878,0,0
12453.0625,283.36510978685817,-9774.782567151136,0,0
12463.075,280.5974800099789,-9766.647797316442,0,0
12473.0875,278.411454608702,-9758.028571489458,0,0
12483.1,276.32860411468494,-9749.413975441432,0,0
12493.1125,274.0018540144277,-9741.445496224722,0,0
12503.125,272.51282760917314,-9732.827383610196,0,0
12513.1375,270.67276582484936,-9724.775583705697,0,0
12523.15,269.59723490693045,-9716.808056996959,0,0
12533.1625,267.6599189150722,-9708.948842461932,0,0
12543.175,266.11328507891125,-9700.558399152831,0,0
12553.1875,264.71441619959126,-9692.763373283313,0,0
12563.2,263.2895543306952,-9684.885821699358,0,0
12573.2125,261.7229747711351,-9676.445752471998,0,0
12583.225,260.05091290334104,-9668.928326737425,0,0
12593.2375,258.4937152191612,-9660.127552020082,0,0
12603.25,257.00607641682313,-9652.499730231768,0,0
12613.2625,255.4398061104759,-9643.469949918579,0,0
12623.275,254.11929777686512,-9634.96987282989,0,0
12633.2875,252.9696451380245,-9625.989587644372,0,0
12643.3,251.6194690544189,-9617.194987436098,0,0
12653.3125,250.59537066738588,-9608.021118155099,0,0
12663.325,250.16542464193603,-9598.996542498142,0,0
12673.3375,249.36910546982665,-9589.650891082183,0,0
12683.35,249.30097778232016,-9580.914145862092,0,0
12693.3625,249.24752128676198,-9571.396894863426,0,0
12703.375,249.78670196170648,-9562.465255695884,0,0
12713.3875,250.0859864831155,-9553.13093853327,0,0
12723.4,250.8021729710361,-9544.008804765053,0,0
12733.4125,252.0788353786308,-9535.245756267826,0,0
12743.425,253.56718546842257,-9526.518462294003,0,0
12753.4375,255.38917724875984,-9518.423102078674,0,0
12763.45,257.04396931719003,-9510.023034992873,0,0
12773.4625,259.64940669807277,-9502.48045175324,0,0
12783.475,261.5493781507305,-9495.606113769203,0,0
12793.4875,263.75254057700204,-9488.875578683801,0,0
12803.5,265.83969885708825,-9482.477203641565,0,0
12813.5125,267.8688358073329,-9476.896787406387,0,0
12823.525,269.3995966415721,-9471.307042200644,0,0
12833.5375,271.15515348629816,-9466.349186233438,0,0
12843.55,271.7817346144434,-9461.80396705332,0,0
12853.5625,272.23393682991343,-9457.09213059137,0,0
12863.575,272.1222084788171,-9452.491355376796,0,0
12873.5875,271.92799267686587,-9447.992125764202,0,0
12883.6,270.4552934505151,-9442.838945852158,0,0
12893.6125,269.3655494768096,-9438.038055985933,0,0
12903.625,267.7420257934087,-9433.093191867956,0,0
12913.6375,266.4603849548301,-9427.283622409694,0,0
12923.65,264.5258397971985,-9421.5307864174,0,0
12933.6625,262.6378496352562,-9415.817463291904,0,0
12943.675,260.5387522094902,-9409.649826840241,0,0
12953.6875,258.57571631210004,-9403.169240225088,0,0
12963.7,256.75203114459134,-9396.28669847342,0,0
12973.7125,255.13689286581487,-9389.466023683755,0,0
12983.725,253.29630014662607,-9382.474338248892,0,0
12993.7375,251.64252630275664,-9375.339921103852,0,0
13003.75,249.76113993975633,-9368.142386751475,0,0
13013.7625,248.3134712257978,-9361.001563469708,0,0
13023.775,247.42196966620423,-9353.488822996578,0,0
13033.7875,245.6319025873432,-9346.503794792783,0,0
13043.8,244.2680930306006,-9338.802256485256,0,0
13053.8125,243.27857095783506,-9331.10165141377,0,0
13063.825,241.91731925919933,-9323.638602269399,0,0
13073.8375,241.34752766050386,-9316.310257988986,0,0
13083.85,240.14722376016977,-9308.552802011869,0,0
13093.8625,239.34353457314626,-9301.332346961452,0,0
13103.875,238.5790331229504,-9293.7554510859,0,0
13113.8875,237.8555141651763,-9286.113464073196,0,0
13123.9,237.16649503428886,-9278.482201098188,0,0
13133.9125,236.74844730029187,-9270.769893623143,0,0
13143.925,236.11600713987784,-9263.25359937891,0,0
13153.9375,235.54321962163408,-9255.803339224558,0,0
13163.95,235.5338476131968,-9248.383015641091,0,0
13173.9625,235.3811920264534,-9241.132834327987,0,0
13183.975,234.7774021243098,-9233.602597621059,0,0
13193.9875,234.51719818717288,-9226.241270882705,0,0
13204.0,234.5797954245211,-9218.966265530675,0,0
13214.0125,234.775919822234,-9211.97069786523,0,0
13224.025,234.3407204378914,-9204.056078768413,0,0
13234.0375,234.53705818013802,-9197.51443107669,0,0
13244.05,234.41483446142857,-9190.161844863964,0,0
13254.0625,234.6217558070131,-9183.39300438057,0,0
13264.075,234.49733613655482,-9176.417933154351,0,0
13274.0875,235.28431466072172,-9170.306281477417,0,0
13284.1,234.78865167054184,-9163.215055510318,0,0
13294.1125,234.8124449593051,-9157.315336856125,0,0
13304.125,234.96433294835128,-9149.904508529244,0,0
13314.1375,234.18385352895527,-9144.234060427498,0,0
13324.15,234.15738807668384,-9138.059974811022,0,0
13334.1625,234.18444878437103,-9132.415374080558,0,0
13344.175,233.4773738914211,-9125.123568096695,0,0
13354.1875,232.33922098016117,-9119.20906713309,0,0
13364.2,231.27069260304518,-9113.399797840755,0,0
13374.2125,230.49152300489783,-9107.170845479057,0,0
13384.225,229.55569741701484,-9100.936170702853,0,0
13394.2375,228.75397124191633,-9094.23432988309,0,0
13404.25,227.3804584888699,-9087.487302284717,0,0
13414.2625,226.36006748244148,-9080.626523362926,0,0
13424.275,225.56776463160358,-9073.664646294203,0,0
13434.2875,223.91941597381822,-9066.552627590567,0,0
13444.3,222.31249785803146,-9059.094518491396,0,0
13454.3125,221.34949161401386,-9051.58302250803,0,0
13464.325,221.18547540329044,-9043.766717483071,0,0
13474.3375,220.61301929733628,-9036.416346159363,0,0
13484.35,220.12571852749514,-9029.789238258552,0,0
13494.3625,219.21474875981636,-9022.414795352077,0,0
13504.375,218.71839474091084,-9014.017155635383,0,0
13514.3875,219.16140519561353,-9006.88664907507,0,0
13524.4,218.25004695963884,-8999.84986655289,0,0
13534.4125,218.41062072304814,-8991.764691603348,0,0
13544.425,219.14701250245358,-8984.963104374418,0,0
13554.4375,218.43377393181072,-8977.153542899836,0,0
13564.45,219.6216793302236,-8970.468063488166,0,0
13574.4625,219.27585675848096,-8962.89283767564,0,0
13584.475,219.9151023998561,-8956.160143191553,0,0
13594.4875,220.30221274991783,-8948.554448519677,0,0
13604.5,221.1685223749513,-8942.601806983375,0,0
13614.5125,222.23947663836506,-8934.872311008103,0,0
13624.525,222.29148320280174,-8928.778427066969,0,0
13634.5375,223.3937325915016,-8922.650911487613,0,0
13644.55,224.69339362546106,-8916.832552364773,0,0
13654.5625,225.30543769905015,-8910.578622213157,0,0
13664.575,225.50944519310914,-8905.21996042069,0,0
13674.5875,226.16981978174113,-8900.094547686787,0,0
13684.6,225.57850722120574,-8895.19120402544,0,0
13694.6125,225.8269587852953,-8890.252358932226,0,0
13704.625,225.18631725338852,-8885.03773078152,0,0
13714.6375,224.2102017400203,-8879.63118871824,0,0
13724.65,223.42869990819239,-8874.191300849065,0,0
13734.6625,221.9285814710456,-8868.718917797878,0,0
13744.675,220.46934842079835,-8862.817117939469,0,0
