Frequency (Hz),Impedance (ohms),Phase (Radians),Temperature (C),Humidity (%)
10000.0,4149.495123658851,-6633.399512135812,0,0
10010.0125,4144.316039335375,-6630.26099962754,0,0
10020.025,4138.868718824575,-6627.145342454757,0,0
10030.0375,4133.287922527346,-6623.933211541975,0,0
10040.05,4127.914379399579,-6620.874017690442,0,0
10050.0625,4122.751847197487,-6617.740221828239,0,0
10060.075,4117.329328933749,-6614.513760298632,0,0
10070.0875,4112.056556074226,-6611.398217001344,0,0
10080.1,4106.790788927867,-6608.642316720287,0,0
10090.1125,4101.443402096687,-6605.484942202705,0,0
10100.125,4095.672549596325,-6602.289421910173,0,0
10110.1375,4090.6935140145997,-6599.199234787925,0,0
10120.15,4085.2896851583773,-6596.153888274513,0,0
10130.1625,4079.869521141114,-6592.844551441318,0,0
10140.175,4074.730332520244,-6589.68689633404,0,0
10150.1875,4069.687751783703,-6586.806686269269,0,0
10160.2,4064.2633953874506,-6583.3658215880905,0,0
10170.2125,4059.042104961566,-6580.470230841955,0,0
10180.225,4053.730101343687,-6577.1630218203145,0,0
10190.2375,4048.5809354205826,-6574.222710184489,0,0
10200.25,4043.4427693102875,-6570.951079509449,0,0
10210.2625,4038.209996504498,-6568.114015718628,0,0
10220.275,4032.952588560244,-6565.003098895058,0,0
10230.2875,4027.7279660712816,-6561.516927810458,0,0
10240.3,4022.533410063893,-6558.735925285317,0,0
10250.3125,4017.5942759726313,-6555.685094527712,0,0
10260.325,4012.212712593184,-6552.371809413868,0,0
10270.3375,4006.9514244633083,-6549.254932570739,0,0
10280.35,4001.822677112549,-6546.101259056008,0,0
10290.3625,3996.65603794931,-6543.144904185127,0,0
10300.375,3991.602650478596,-6539.928925768422,0,0
10310.3875,3986.592149989698,-6536.919508384094,0,0
10320.4,3981.3292370630666,-6533.717040068967,0,0
10330.4125,3976.301618288937,-6530.669251314623,0,0
10340.425,3971.3617297630008,-6527.500943733674,0,0
10350.4375,3966.178402608515,-6524.554727086629,0,0
10360.45,3961.3236750590218,-6521.195917654192,0,0
10370.4625,3956.0752541280335,-6518.1882462895255,0,0
10380.475,3951.0841340827883,-6515.059351392328,0,0
10390.4875,3945.8759365097426,-6511.697033003486,0,0
10400.5,3940.8295209067446,-6508.552414296532,0,0
10410.5125,3935.828013453061,-6505.8211010601,0,0
10420.525,3930.9305476454115,-6502.4366040119785,0,0
10430.5375,3926.0267397342222,-6499.567851610956,0,0
10440.55,3920.7253265149625,-6496.470780163023,0,0
10450.5625,3915.8317229253626,-6493.157038664881,0,0
10460.575,3911.0600173226876,-6490.10971203235,0,0
10470.5875,3905.870212270661,-6486.971352814694,0,0
10480.6,3900.9163827855323,-6483.956073941799,0,0
10490.6125,3896.040438351927,-6480.8800735145705,0,0
10500.625,3891.2049040688166,-6477.6586456765535,0,0
10510.6375,3886.111656811573,-6474.695351879774,0,0
10520.65,3881.206017953389,-6471.605948269667,0,0
10530.6625,3876.2620999758383,-6468.446437228692,0,0
10540.675,3871.2894400208206,-6465.261640412166,0,0
10550.6875,3866.65032514346,-6462.111146844439,0,0
10560.7,3861.6274576652263,-6459.1472175885365,0,0
10570.7125,3856.936796333163,-6455.862221509113,0,0
10580.725,3851.8310733117423,-6452.824553382437,0,0
10590.7375,3847.09199380084,-6449.707066719699,0,0
10600.75,3842.3591049912834,-6446.701655456294,0,0
10610.7625,3837.470559927394,-6443.458711139015,0,0
10620.775,3832.587557651464,-6440.417731783723,0,0
10630.7875,3827.769417473307,-6437.375939643875,0,0
10640.8,3823.0633329780694,-6434.384088003077,0,0
10650.8125,3818.3325946309888,-6430.928012062207,0,0
10660.825,3813.741708263281,-6428.137768504317,0,0
10670.8375,3808.8399456674406,-6425.061516457956,0,0
10680.85,3804.0595125581317,-6422.260049212591,0,0
10690.8625,3799.3448109093656,-6419.215730139736,0,0
10700.875,3794.5151705901244,-6415.795204759674,0,0
10710.8875,3789.8754349782785,-6412.9670257553025,0,0
10720.9,3784.9397857903928,-6409.810030019121,0,0
10730.9125,3780.4042257259166,-6407.054265245934,0,0
10740.925,3775.7211893546632,-6403.899227270351,0,0
10750.9375,3770.768808199018,-6400.958252823328,0,0
10760.95,3766.0306899934412,-6397.502416468549,0,0
10770.9625,3761.3189122520653,-6394.458908317274,0,0
10780.975,3756.4548957664506,-6391.221463142558,0,0
10790.9875,3751.9753605596475,-6388.455012237773,0,0
10801.0,3747.32718906422,-6385.306505233121,0,0
10811.0125,3742.5220966804923,-6382.23696856362,0,0
10821.025,3737.797447578135,-6379.223720700654,0,0
10831.0375,3733.176009951969,-6376.247848857122,0,0
10841.05,3728.671614856361,-6372.952499642025,0,0
10851.0625,3724.022475872373,-6369.966202185672,0,0
10861.075,3719.2991883966233,-6366.829919559406,0,0
10871.0875,3714.5826321034187,-6363.805784944024,0,0
10881.1,3709.8620340428633,-6360.741656330375,0,0
10891.1125,3705.272532840601,-6357.9203872245425,0,0
10901.125,3700.8765289222088,-6354.650048999051,0,0
10911.1375,3696.331874743669,-6351.587289594957,0,0
10921.15,3691.624928607016,-6348.3799060643005,0,0
10931.1625,3687.0003450953463,-6345.30205936492,0,0
10941.175,3682.6417149092363,-6342.280818536565,0,0
10951.1875,3677.9378942468666,-6339.464518631058,0,0
10961.2,3673.3053919214512,-6336.050458579732,0,0
10971.2125,3668.7519257584195,-6333.163381827363,0,0
10981.225,3664.275880397334,-6329.904948861979,0,0
10991.2375,3659.9055997806286,-6326.914113626963,0,0
11001.25,3655.4564571527203,-6323.8596317941765,0,0
11011.2625,3650.890212950688,-6320.904953470056,0,0
11021.275,3646.365512387381,-6317.931566745981,0,0
11031.2875,3641.9776163348133,-6314.55117346413,0,0
11041.3,3637.5151610983057,-6311.627514989902,0,0
11051.3125,3633.0599291847275,-6308.612200569583,0,0
11061.325,3628.783389465118,-6305.726529062373,0,0
11071.3375,3624.3160859165596,-6302.496372296604,0,0
11081.35,3619.930759209304,-6299.494285489484,0,0
11091.3625,3615.5264364547033,-6296.632700481857,0,0
11101.375,3611.135368080926,-6293.439639537217,0,0
11111.3875,3606.820499142167,-6290.69968190425,0,0
11121.4,3602.16283496486,-6287.629503724814,0,0
11131.4125,3597.8276426144475,-6284.7717017387595,0,0
11141.425,3593.4519235149523,-6281.428016877163,0,0
11151.4375,3589.01475197998,-6278.687498252856,0,0
11161.45,3584.8483581309188,-6275.641338870739,0,0
11171.4625,3580.413010929584,-6272.516630460919,0,0
11181.475,3575.9733582359495,-6269.707037508975,0,0
11191.4875,3571.4760233772336,-6266.5878357799975,0,0
11201.5,3567.152762514696,-6263.596146533468,0,0
11211.5125,3562.8547217949413,-6260.658965660395,0,0
11221.525,3558.414257654712,-6257.50230164106,0,0
11231.5375,3554.2797617686515,-6254.3576880317905,0,0
11241.55,3549.8968982123547,-6251.4144790377495,0,0
11251.5625,3545.292120976816,-6248.417586547702,0,0
11261.575,3541.2163091714456,-6245.403726238746,0,0
11271.5875,3536.826959013321,-6242.4898676439925,0,0
11281.6,3532.5072995986047,-6239.414373360594,0,0
11291.6125,3528.1599307372508,-6236.32221143266,0,0
11301.625,3523.853711481797,-6233.392053392386,0,0
11311.6375,3519.549507473332,-6230.395547566852,0,0
11321.65,3515.3637239519016,-6227.431418633198,0,0
11331.6625,3511.1053292250103,-6224.40441878575,0,0
11341.675,3507.1459083134914,-6221.664064787705,0,0
11351.6875,3502.8006771592536,-6218.474238534859,0,0
11361.7,3498.4831422397788,-6215.236150372793,0,0
11371.7125,3494.2061908087594,-6212.251466225599,0,0
11381.725,3489.9799613293276,-6209.475532290381,0,0
11391.7375,3485.7015741104815,-6206.4828088414515,0,0
11401.75,3481.3983931720572,-6203.518451660296,0,0
11411.7625,3477.326062178872,-6200.413814350694,0,0
11421.775,3473.368539849191,-6197.487686071785,0,0
11431.7875,3469.0540886875365,-6194.290905031264,0,0
11441.8,3464.9535607023827,-6191.624579944391,0,0
11451.8125,3460.7575205845465,-6188.563803068573,0,0
11461.825,3456.7013899546805,-6185.605589608215,0,0
11471.8375,3452.4191856839807,-6182.469041695615,0,0
11481.85,3448.316747894841,-6179.403850957792,0,0
11491.8625,3444.316725916226,-6176.473502648034,0,0
11501.875,3440.020090800969,-6173.735933991104,0,0
11511.8875,3436.0202529163325,-6170.475467665535,0,0
11521.9,3432.160629290569,-6167.624357141473,0,0
11531.9125,3427.933333724377,-6164.744142747681,0,0
11541.925,3423.70475740823,-6161.6120499989765,0,0
11551.9375,3419.6617593980222,-6158.892172441642,0,0
11561.95,3415.4015815758166,-6155.84259455165,0,0
11571.9625,3411.616829893542,-6152.9840308757975,0,0
11581.975,3407.2965218072045,-6149.936967225472,0,0
11591.9875,3403.348074004747,-6147.111441734804,0,0
11602.0,3399.1814238804295,-6144.107828414565,0,0
11612.0125,3395.4937043570853,-6141.027497010754,0,0
11622.025,3390.885003989906,-6138.119597234888,0,0
11632.0375,3387.0942500155497,-6135.268315286502,0,0
11642.05,3383.1196503768724,-6132.174101097317,0,0
11652.0625,3378.742749799501,-6129.26946491276,0,0
11662.075,3374.9745704575544,-6126.237215016297,0,0
11672.0875,3371.0508567667807,-6123.150123466633,0,0
11682.1,3367.002374223974,-6120.288790361053,0,0
11692.1125,3362.939999055765,-6117.375251987341,0,0
11702.125,3359.0860428835736,-6114.416665129516,0,0
11712.1375,3355.0465445978343,-6111.270229684268,0,0
11722.15,3351.070133250573,-6108.4311737043,0,0
11732.1625,3347.0031078624743,-6105.276199716829,0,0
11742.175,3343.362959615796,-6102.491136864985,0,0
11752.1875,3338.9823729722625,-6099.637029693506,0,0
11762.2,3335.3508966248364,-6096.757098767522,0,0
11772.2125,3331.4006026142138,-6093.934985583234,0,0
11782.225,3327.5879726659723,-6090.881665631145,0,0
11792.2375,3323.667046601965,-6087.981716135193,0,0
11802.25,3319.930799186875,-6085.128497351282,0,0
11812.2625,3316.126628583532,-6082.287289566637,0,0
11822.275,3311.9908419132216,-6079.506435569908,0,0
11832.2875,3308.0040287162406,-6076.578671859405,0,0
11842.3,3304.2726094311897,-6073.293392003771,0,0
11852.3125,3300.327174515105,-6070.554340807572,0,0
11862.325,3296.610303374945,-6067.559794371588,0,0
11872.3375,3292.578540562029,-6065.021188321832,0,0
11882.35,3288.624454288763,-6061.730780374249,0,0
11892.3625,3284.997727183268,-6058.73790509183,0,0
11902.375,3280.891271062743,-6056.06336916009,0,0
11912.3875,3277.2370037686896,-6053.22137602699,0,0
11922.4,3273.1725542742124,-6050.2810116703395,0,0
11932.4125,3269.4679912215447,-6047.491955682537,0,0
11942.425,3265.5353161906773,-6044.321736548951,0,0
11952.4375,3261.693954032597,-6041.584575446811,0,0
11962.45,3257.762500067897,-6038.708926667145,0,0
11972.4625,3254.210675310642,-6035.589303288167,0,0
11982.475,3250.1496016814176,-6032.698852387486,0,0
11992.4875,3246.3325002522697,-6029.915858720201,0,0
12002.5,3242.505333331326,-6027.084804237697,0,0
12012.5125,3238.9324983036217,-6024.093017627421,0,0
12022.525,3235.0033480767097,-6021.165090971478,0,0
12032.5375,3231.2348964790276,-6018.529520647382,0,0
12042.55,3227.4459698253445,-6015.473077527125,0,0
12052.5625,3223.635967696945,-6012.5728966644665,0,0
12062.575,3219.9779282932714,-6009.598391293306,0,0
12072.5875,3216.1814109291786,-6006.546140454602,0,0
12082.6,3212.2453623204974,-6003.801600788365,0,0
12092.6125,3208.5225866922633,-6000.918623316914,0,0
12102.625,3204.762526036751,-5997.857190447486,0,0
12112.6375,3201.111311337987,-5994.978062397461,0,0
12122.65,3197.351617837101,-5992.011617169017,0,0
12132.6625,3193.5973222678867,-5989.13766203674,0,0
12142.675,3190.2028738564954,-5986.219249927522,0,0
12152.6875,3186.399191239277,-5983.220537614722,0,0
12162.7,3182.675068438444,-5980.34512499752,0,0
12172.7125,3178.9780727236034,-5977.559720227271,0,0
12182.725,3175.4198764988696,-5974.629709937604,0,0
12192.7375,3171.949568020041,-5971.624252586733,0,0
12202.75,3168.262214422177,-5968.715906085419,0,0
12212.7625,3164.650966401598,-5965.828865847001,0,0
12222.775,3160.970904545431,-5963.014116454863,0,0
12232.7875,3157.420814420093,-5960.299440816674,0,0
12242.8,3153.7485158941877,-5957.360162988861,0,0
12252.8125,3150.313328810889,-5954.652332697189,0,0
12262.825,3146.7484596391564,-5951.768016205741,0,0
12272.8375,3142.98265081889,-5949.19127464087,0,0
12282.85,3139.2865276936172,-5946.1605823547825,0,0
12292.8625,3135.615382260005,-5943.542080173031,0,0
12302.875,3132.035639790445,-5940.512170982565,0,0
12312.8875,3128.392567538276,-5937.5282725026545,0,0
12322.9,3124.7333357167045,-5934.817904190808,0,0
12332.9125,3121.3493206219387,-5932.11657729227,0,0
12342.925,3117.5412330582867,-5929.200403523592,0,0
12352.9375,3114.1126464019135,-5926.215144008944,0,0
12362.95,3110.5197287250953,-5923.617299407398,0,0
12372.9625,3106.7948038964046,-5920.6699145361345,0,0
12382.975,3103.220555653591,-5917.745413147632,0,0
12392.9875,3099.6608700303423,-5914.967429470859,0,0
12403.0,3095.9562635863476,-5911.8540593423095,0,0
12413.0125,3092.623266642064,-5908.983764298913,0,0
12423.025,3088.9350185257786,-5905.9954891428115,0,0
12433.0375,3085.5071187683816,-5903.466091886425,0,0
12443.05,3081.8570097681286,-5900.253841108761,0,0
12453.0625,3078.2536651388555,-5897.548761465425,0,0
12463.075,3074.9073587100784,-5894.791196300291,0,0
12473.0875,3071.3289197264708,-5891.62156388567,0,0
12483.1,3067.8730894396417,-5888.841825726437,0,0
12493.1125,3064.1809587266075,-5886.094233220828,0,0
12503.125,3060.865186917218,-5883.381158436378,0,0
12513.1375,3057.284172728781,-5880.190271013517,0,0
12523.15,3053.897470341224,-5876.992416409518,0,0
12533.1625,3050.3268910780735,-5874.072646014406,0,0
12543.175,3047.015503995807,-5871.065630997648,0,0
12553.1875,3043.5735524325937,-5868.215666886557,0,0
12563.2,3040.2449222007954,-5865.159815846364,0,0
12573.2125,3036.9877800412073,-5862.18689751033,0,0
12583.225,3033.836014005572,-5859.13477101702,0,0
12593.2375,3030.5559343903687,-5856.153879147071,0,0
12603.25,3027.622836946066,-5853.484570994289,0,0
12613.2625,3024.576610244106,-5850.754716394467,0,0
12623.275,3021.400795449439,-5848.072750337008,0,0
12633.2875,3018.3261342105066,-5845.411631656387,0,0
12643.3,3015.1286799973677,-5842.803135270961,0,0
12653.3125,3011.934674699186,-5840.222765751856,0,0
12663.325,3008.239414262921,-5837.794513760187,0,0
12673.3375,3005.1647747382153,-5835.190870488839,0,0
12683.35,3001.713804545716,-5832.711707504734,0,0
12693.3625,2998.1856244656274,-5829.822093258608,0,0
12703.375,2994.6917372636462,-5827.260986690261,0,0
12713.3875,2991.2421435228252,-5824.323752991796,0,0
12723.4,2987.995117771498,-5821.718524542323,0,0
12733.4125,2984.4142056261603,-5819.191130042585,0,0
12743.425,2981.203761883658,-5816.135689112193,0,0
12753.4375,2977.795434268058,-5813.503314851392,0,0
12763.45,2974.700307731848,-5810.605922431917,0,0
12773.4625,2971.1875902517095,-5808.005878125227,0,0
12783.475,2967.789411458294,-5805.2261099952275,0,0
12793.4875,2964.5004706911673,-5802.4090491440775,0,0
12803.5,2961.093283825884,-5799.729623844704,0,0
12813.5125,2957.7891184599594,-5796.702595662217,0,0
12823.525,2954.367522763185,-5794.113030796781,0,0
12833.5375,2951.0808989709844,-5791.16902304599,0,0
12843.55,2947.862836777339,-5788.384127311605,0,0
12853.5625,2944.56312690029,-5785.48455321417,0,0
12863.575,2941.359346729578,-5782.667834642223,0,0
12873.5875,2938.1628185159693,-5779.9078987509665,0,0
12883.6,2934.8606383141355,-5777.050228455598,0,0
12893.6125,2931.7561735537333,-5774.188353830768,0,0
12903.625,2928.702152452815,-5771.499989633611,0,0
12913.6375,2925.5034432099683,-5768.567032469018,0,0
12923.65,2922.4076548064554,-5765.8933596691695,0,0
12933.6625,2919.275046642923,-5763.275851258147,0,0
12943.675,2916.074238664164,-5760.484478075649,0,0
12953.6875,2913.1731283655063,-5757.687788793801,0,0
12963.7,2910.205654924434,-5755.202310939315,0,0
12973.7125,2906.953628687431,-5752.461476880714,0,0
12983.725,2903.830027675718,-5749.81992646372,0,0
12993.7375,2900.948533436104,-5747.203590869011,0,0
13003.75,2897.4044204964016,-5744.391793573156,0,0
13013.7625,2894.2327895283256,-5741.937938268566,0,0
13023.775,2891.0674465624215,-5739.281225790149,0,0
13033.7875,2887.948025239361,-5736.576626849327,0,0
13043.8,2884.717572632058,-5734.018535334091,0,0
13053.8125,2881.6215139220953,-5731.374492025508,0,0
13063.825,2878.4914619386054,-5728.55131282645,0,0
13073.8375,2875.384577594974,-5725.865722343635,0,0
13083.85,2872.244047240281,-5723.299214113189,0,0
13093.8625,2869.227836149677,-5720.447415590707,0,0
13103.875,2866.085666791814,-5717.725717938025,0,0
13113.8875,2863.0097391284635,-5715.202922014741,0,0
13123.9,2859.7007333787337,-5712.476425494399,0,0
13133.9125,2856.681336434292,-5709.954428815933,0,0
13143.925,2853.7030458016116,-5707.082342142027,0,0
13153.9375,2850.6216253868415,-5704.470618377842,0,0
13163.95,2847.5716009747794,-5702.027455048686,0,0
13173.9625,2844.560582110908,-5699.104306283246,0,0
13183.975,2841.7033888406586,-5696.535556667421,0,0
13193.9875,2838.544538870116,-5693.917014136211,0,0
13204.0,2835.4948265419935,-5691.313141291175,0,0
13214.0125,2832.4955707612917,-5688.795350211483,0,0
13224.025,2829.391996540276,-5686.4080569118805,0,0
13234.0375,2826.467947790329,-5683.566922433785,0,0
13244.05,2823.4808650569166,-5681.038774378762,0,0
13254.0625,2820.536018222421,-5678.554864046638,0,0
13264.075,2817.1418242571517,-5676.1071920948925,0,0
13274.0875,2814.201827462025,-5673.257711804552,0,0
13284.1,2811.099535252585,-5670.993175433394,0,0
13294.1125,2807.8000823715515,-5668.260202102122,0,0
13304.125,2804.99683127232,-5665.742657372638,0,0
13314.1375,2802.0176693312387,-5663.3324775756955,0,0
13324.15,2798.5700135415414,-5660.55188452323,0,0
13334.1625,2795.6671645945867,-5658.024575574496,0,0
13344.175,2792.5306305870067,-5655.268442367026,0,0
13354.1875,2789.2632828555843,-5653.074509735244,0,0
13364.2,2786.308530374445,-5650.255922931947,0,0
13374.2125,2783.0651591649885,-5647.419153593649,0,0
13384.225,2780.0282730334898,-5645.352163040414,0,0
13394.2375,2777.0763892945956,-5642.605141619713,0,0
13404.25,2774.09125622981,-5639.523647025982,0,0
13414.2625,2770.620079318786,-5637.116140968239,0,0
13424.275,2767.7775185782134,-5634.665693410301,0,0
13434.2875,2765.115113460449,-5631.832661347535,0,0
13444.3,2762.115239751252,-5629.088313096539,0,0
13454.3125,2759.047615293379,-5626.475001113243,0,0
13464.325,2756.160348280715,-5623.71299093454,0,0
13474.3375,2753.059304439342,-5621.222485879223,0,0
13484.35,2750.0139037625518,-5618.572843920716,0,0
13494.3625,2746.953327212702,-5616.136775980647,0,0
13504.375,2743.936954688661,-5613.316043141267,0,0
13514.3875,2741.2915810686577,-5610.934478152258,0,0
13524.4,2738.3306652971996,-5608.34987566234,0,0
13534.4125,2734.9220483677686,-5606.078516520633,0,0
13544.425,2731.894009699033,-5603.2531991679725,0,0
13554.4375,2728.8323460236315,-5600.2302290669395,0,0
13564.45,2726.2004874591616,-5597.692838541071,0,0
13574.4625,2722.994061868138,-5595.292259192631,0,0
13584.475,2719.9520208299837,-5592.3245408907,0,0
13594.4875,2717.3097074993425,-5589.983916866956,0,0
13604.5,2714.1129172641354,-5587.584270422812,0,0
13614.5125,2711.5742469857732,-5584.4885146160395,0,0
13624.525,2708.380777007103,-5582.40861576285,0,0
13634.5375,2705.5568488506324,-5579.427442796677,0,0
13644.55,2702.3978431666574,-5576.843332082688,0,0
13654.5625,2699.89716975497,-5574.524020614374,0,0
13664.575,2696.680629623525,-5571.661070253028,0,0
13674.5875,2693.789316889699,-5569.263971486708,0,0
13684.6,2690.993164785695,-5566.462823559478,0,0
13694.6125,2687.8817959079806,-5563.806882604279,0,0
13704.625,2685.03318397453,-5561.37805214236,0,0
13714.6375,2682.441897515338,-5558.871478862518,0,0
13724.65,2679.509365095431,-5555.840828140962,0,0
13734.6625,2676.584211654015,-5553.099070283894,0,0
13744.675,2673.5420456237866,-5550.699090081528,0,0
13754.6875,2670.715291423762,-5548.188387836056,0,0
13764.7,2667.9810142379133,-5545.683979109277,0,0
13774.7125,2665.10483896008,-5542.997305558539,0,0
