Frequency (Hz),Impedance (ohms),Phase (Radians),Temperature (C),Humidity (%)
10000.0,4215.646586993693,-6545.212059105615,0,0
10010.0125,4209.474684957372,-6542.060688352541,0,0
10020.025,4204.271842854619,-6539.426542541844,0,0
10030.0375,4199.573137686726,-6536.486645129688,0,0
10040.05,4193.9128245918455,-6533.323454842625,0,0
10050.0625,4188.115191601115,-6530.447137976334,0,0
10060.075,4182.910958342718,-6527.4957447621755,0,0
10070.0875,4177.565325938001,-6524.250631807672,0,0
10080.1,4172.0549340749785,-6521.420894072424,0,0
10090.1125,4167.416136386657,-6518.059008432281,0,0
10100.125,4161.6810610324965,-6515.348149981351,0,0
10110.1375,4156.023152279217,-6512.9094642744585,0,0
10120.15,4151.438694112991,-6509.724056131698,0,0
10130.1625,4145.839844114849,-6507.310283126438,0,0
10140.175,4140.551548715816,-6503.7222840172,0,0
10150.1875,4135.140725708202,-6500.936944323822,0,0
10160.2,4130.273161272859,-6497.492700867988,0,0
10170.2125,4124.706650054098,-6494.951967563063,0,0
10180.225,4119.333193016242,-6491.883531371768,0,0
10190.2375,4114.308248456914,-6489.257655845034,0,0
10200.25,4109.019603685954,-6486.575210417874,0,0
10210.2625,4103.938405207531,-6483.589454390514,0,0
10220.275,4098.354325675658,-6480.422741816198,0,0
10230.2875,4093.1969480189155,-6476.828566856824,0,0
10240.3,4088.0975180723617,-6474.41488224414,0,0
10250.3125,4083.0424445362723,-6471.485485317923,0,0
10260.325,4077.181661741844,-6468.673707977314,0,0
10270.3375,4071.8645425831137,-6465.794518791676,0,0
10280.35,4067.7050814877425,-6462.681115684541,0,0
10290.3625,4062.2132260010885,-6459.635865888413,0,0
10300.375,4057.346659936576,-6456.490791051306,0,0
10310.3875,4051.798894044237,-6453.566492111079,0,0
10320.4,4046.9069184509176,-6450.811491998788,0,0
10330.4125,4041.5608616813997,-6448.442820606872,0,0
10340.425,4036.966236536726,-6445.070761271691,0,0
10350.4375,4031.5581903917364,-6442.115314436172,0,0
10360.45,4026.2566296683244,-6439.244432495314,0,0
10370.4625,4021.0791362954224,-6436.20027987566,0,0
10380.475,4016.4415421375124,-6432.907056056001,0,0
10390.4875,4011.1938392241686,-6430.184069342171,0,0
10400.5,4005.8105528012593,-6426.950077340753,0,0
10410.5125,4000.9192976908344,-6424.5579601991785,0,0
10420.525,3996.097354330087,-6421.359638304586,0,0
10430.5375,3991.3426953175326,-6418.331840291786,0,0
10440.55,3985.7898670441164,-6415.475397092814,0,0
10450.5625,3981.209873855855,-6412.290554071723,0,0
10460.575,3976.073976121047,-6409.58922611218,0,0
10470.5875,3971.120438557552,-6406.581378705778,0,0
10480.6,3966.109948820407,-6403.466425387364,0,0
10490.6125,3961.0928737045147,-6400.9485505914745,0,0
10500.625,3956.0952788197283,-6398.176411855336,0,0
10510.6375,3951.580408823041,-6394.848008094406,0,0
10520.65,3946.6320135115798,-6391.843557822042,0,0
10530.6625,3941.631162485424,-6388.808440559511,0,0
10540.675,3936.7670745271316,-6385.961365005137,0,0
10550.6875,3931.492736290374,-6383.034475023234,0,0
10560.7,3926.7837494763917,-6380.219777257536,0,0
10570.7125,3922.225656008883,-6377.470712542388,0,0
10580.725,3917.180813781275,-6374.189299694244,0,0
10590.7375,3912.5810525758834,-6370.826986579079,0,0
10600.75,3907.382741341986,-6368.43618033953,0,0
10610.7625,3902.3181561354327,-6365.213036253923,0,0
10620.775,3897.555444004107,-6362.808277083333,0,0
10630.7875,3892.7352180461776,-6359.779055993902,0,0
10640.8,3888.3063895484984,-6357.61103739048,0,0
10650.8125,3883.314162830699,-6353.778383471449,0,0
10660.825,3878.0370188410598,-6351.186121708093,0,0
10670.8375,3873.4812533945064,-6348.23553464861,0,0
10680.85,3868.8236616961035,-6345.1497238898055,0,0
10690.8625,3863.891360822163,-6342.09861758132,0,0
10700.875,3858.906464415252,-6339.293173685949,0,0
10710.8875,3854.54174765298,-6336.061097034717,0,0
10720.9,3849.9234844353,-6333.087539760322,0,0
10730.9125,3844.9742366816413,-6330.43323607769,0,0
10740.925,3840.06606417648,-6327.704462952311,0,0
10750.9375,3835.275540356934,-6324.725178599705,0,0
10760.95,3830.2045308334427,-6321.87350561861,0,0
10770.9625,3825.7272496448977,-6318.894895932557,0,0
10780.975,3820.759459986861,-6315.851797208958,0,0
10790.9875,3816.554193288147,-6312.88325456576,0,0
10801.0,3811.5012923965296,-6310.132688899875,0,0
10811.0125,3806.75147411459,-6307.126896585037,0,0
10821.025,3802.1660505774066,-6304.383193298873,0,0
10831.0375,3797.503760672865,-6301.296571059532,0,0
10841.05,3792.886192469388,-6297.966281651037,0,0
10851.0625,3787.8714431632816,-6295.651316090051,0,0
10861.075,3783.603875888512,-6292.387272231094,0,0
10871.0875,3778.989143612559,-6289.351435740904,0,0
10881.1,3774.00924737356,-6286.4230797135615,0,0
10891.1125,3769.3382308570895,-6283.730721184539,0,0
10901.125,3764.869439548274,-6280.626796474325,0,0
10911.1375,3760.3698840051525,-6277.7550745692515,0,0
10921.15,3755.662182694051,-6274.873949281918,0,0
10931.1625,3751.3792527422,-6271.395236679103,0,0
10941.175,3746.469898222236,-6269.008795018292,0,0
10951.1875,3741.98793144339,-6266.120258544675,0,0
10961.2,3737.451492347357,-6263.316641684397,0,0
10971.2125,3732.8812305603783,-6260.26085002541,0,0
10981.225,3728.3246194327658,-6257.325915640224,0,0
10991.2375,3723.821894756159,-6254.503426055683,0,0
11001.25,3719.0263586383444,-6251.447483789662,0,0
11011.2625,3714.8364304517468,-6248.571209807392,0,0
11021.275,3710.4479422659424,-6245.6572738485465,0,0
11031.2875,3705.6656710766506,-6242.856619859698,0,0
11041.3,3701.335145209291,-6240.2054467546595,0,0
11051.3125,3697.1344445652053,-6237.251188691608,0,0
11061.325,3692.5888281817256,-6234.1251860426155,0,0
11071.3375,3688.376147741393,-6231.28129946407,0,0
11081.35,3683.8376655292277,-6228.293786352436,0,0
11091.3625,3679.4147427044013,-6225.661940678709,0,0
11101.375,3675.111391248056,-6222.610408361143,0,0
11111.3875,3670.7584462010977,-6219.763246541609,0,0
11121.4,3665.940574078304,-6217.211401608729,0,0
11131.4125,3661.635811034686,-6214.331267579213,0,0
11141.425,3657.2859018159543,-6211.563672254891,0,0
11151.4375,3652.952687160771,-6208.788666646123,0,0
11161.45,3648.1562403341163,-6205.954020214165,0,0
11171.4625,3644.182373799434,-6203.104260068282,0,0
11181.475,3639.3186629640436,-6200.053627869777,0,0
11191.4875,3634.9229733419743,-6197.193154018663,0,0
11201.5,3630.5276701850958,-6194.324183936312,0,0
11211.5125,3626.2726087691176,-6191.447409549408,0,0
11221.525,3621.801037254029,-6188.601209130796,0,0
11231.5375,3617.624486803361,-6185.7454413741125,0,0
11241.55,3612.8004498405585,-6182.6123069759615,0,0
11251.5625,3608.950079885466,-6179.730544331896,0,0
11261.575,3604.485338565469,-6177.038393358641,0,0
11271.5875,3599.8874342546856,-6173.943553070196,0,0
11281.6,3595.635012495467,-6171.179240985767,0,0
11291.6125,3591.419565577979,-6168.468231214335,0,0
11301.625,3587.0166336859443,-6165.657623442981,0,0
11311.6375,3582.8429899894695,-6162.586578109247,0,0
11321.65,3578.6592224211017,-6159.473838393666,0,0
11331.6625,3574.2737533851387,-6156.8493875135755,0,0
11341.675,3570.1367837192956,-6153.866801762271,0,0
11351.6875,3565.895105997737,-6151.1036002874935,0,0
11361.7,3561.540625943939,-6148.291954525212,0,0
11371.7125,3557.4215741352136,-6145.506087199301,0,0
11381.725,3553.1411899359596,-6142.574593266783,0,0
11391.7375,3549.2380296426263,-6139.658246743244,0,0
11401.75,3544.9210494917756,-6136.58780351094,0,0
11411.7625,3540.753911623946,-6133.828169900653,0,0
11421.775,3536.300994375509,-6131.185604761346,0,0
11431.7875,3531.8231832179786,-6128.1921436433695,0,0
11441.8,3527.9748236081473,-6125.643832282879,0,0
11451.8125,3523.6688227763934,-6122.503161803475,0,0
11461.825,3519.718813303757,-6120.024584346856,0,0
11471.8375,3515.2050744256303,-6117.111004043656,0,0
11481.85,3511.088977000857,-6114.226687767446,0,0
11491.8625,3506.766985155457,-6111.392906104641,0,0
11501.875,3502.899679577421,-6108.561611600564,0,0
11511.8875,3498.6819631679273,-6105.818156042686,0,0
11521.9,3494.7083472908803,-6102.9761870751945,0,0
11531.9125,3490.4094031037544,-6100.390189759126,0,0
11541.925,3485.951315363556,-6097.149275656257,0,0
11551.9375,3482.321056408121,-6094.726774517024,0,0
11561.95,3477.694222075612,-6091.628153976407,0,0
11571.9625,3473.793253379188,-6088.604535671959,0,0
11581.975,3469.7614700381596,-6086.01691672505,0,0
11591.9875,3465.566128490107,-6083.449809564039,0,0
11602.0,3461.421940257863,-6080.04390223561,0,0
11612.0125,3457.3988106530674,-6077.499908609637,0,0
11622.025,3453.394131536354,-6074.757919737057,0,0
11632.0375,3449.405264953233,-6071.75786340231,0,0
11642.05,3445.2713329245626,-6068.8160783499015,0,0
11652.0625,3441.0915943210152,-6066.153139797193,0,0
11662.075,3437.0387033168076,-6063.110454719418,0,0
11672.0875,3433.01921012974,-6060.241615747003,0,0
11682.1,3428.9309789009085,-6057.646682159615,0,0
11692.1125,3424.8318298441914,-6054.870930118338,0,0
11702.125,3421.0805389024868,-6051.683851875626,0,0
11712.1375,3417.096003816073,-6049.049410997398,0,0
11722.15,3412.831633424913,-6046.196751425204,0,0
11732.1625,3409.0142583215,-6043.527084212324,0,0
11742.175,3405.0015301666267,-6040.752833856729,0,0
11752.1875,3401.052717362223,-6038.200329788489,0,0
11762.2,3397.0177008382475,-6035.147817832363,0,0
11772.2125,3393.1901466088593,-6031.947409761196,0,0
11782.225,3389.476777575341,-6029.46269685449,0,0
11792.2375,3385.3522511338183,-6026.457656702253,0,0
11802.25,3381.448954458132,-6023.728626220077,0,0
11812.2625,3377.4017397680236,-6020.925695259604,0,0
11822.275,3373.402080804149,-6018.489371027122,0,0
11832.2875,3369.5564936848928,-6015.312886874099,0,0
11842.3,3365.7703949548018,-6012.795457712997,0,0
11852.3125,3361.916159581424,-6010.101104614539,0,0
11862.325,3357.935658312071,-6007.451916992363,0,0
11872.3375,3353.774779638553,-6004.046161010798,0,0
11882.35,3350.36253382045,-6001.910601735218,0,0
11892.3625,3346.2522280445723,-5999.140190712172,0,0
11902.375,3342.2604503631633,-5995.82839338532,0,0
11912.3875,3338.152088584748,-5993.494575393372,0,0
11922.4,3334.391427206895,-5990.355358702546,0,0
11932.4125,3330.468339768493,-5987.657417136156,0,0
11942.425,3326.5208943159846,-5984.733226522154,0,0
11952.4375,3322.6161935351824,-5982.103689090485,0,0
11962.45,3319.0075054199524,-5979.436135783536,0,0
11972.4625,3314.8376014442956,-5976.420081939277,0,0
11982.475,3311.0933558922443,-5973.728731937254,0,0
11992.4875,3307.5603196520046,-5971.097960152183,0,0
12002.5,3303.4397735384505,-5968.29016686824,0,0
12012.5125,3299.5747655548453,-5965.37071236038,0,0
12022.525,3295.778846244219,-5962.696360057991,0,0
12032.5375,3291.9497310802426,-5959.796981555972,0,0
12042.55,3288.393166301505,-5957.133554593701,0,0
12052.5625,3284.541704089837,-5954.209453400648,0,0
12062.575,3280.6560785906527,-5951.161977315656,0,0
12072.5875,3276.7240322278594,-5948.589834540026,0,0
12082.6,3272.745464020835,-5945.602284176117,0,0
12092.6125,3269.312720087424,-5942.845099194825,0,0
12102.625,3265.468732074412,-5940.2763625605685,0,0
12112.6375,3261.503939917278,-5937.2715135084,0,0
12122.65,3258.0325349446866,-5934.028871182712,0,0
12132.6625,3254.1226487645486,-5931.593821337917,0,0
12142.675,3250.4836047279355,-5928.645283778479,0,0
12152.6875,3246.9785949017228,-5926.3014764515465,0,0
12162.7,3243.249086858279,-5923.279880748738,0,0
12172.7125,3239.4018560983177,-5920.654712894474,0,0
12182.725,3235.9383469785917,-5917.957815822284,0,0
12192.7375,3232.002613032238,-5915.095117298003,0,0
12202.75,3228.5506383710804,-5912.537703521745,0,0
12212.7625,3224.554872603012,-5909.810015767688,0,0
12222.775,3220.901095831378,-5906.8340038254,0,0
12232.7875,3217.500778681914,-5904.075590684488,0,0
12242.8,3213.6947399723126,-5901.363364816252,0,0
12252.8125,3209.8852203048505,-5898.706149225146,0,0
12262.825,3206.1293247103854,-5896.060638432559,0,0
12272.8375,3202.739859274463,-5893.056413886495,0,0
12282.85,3198.7313250442667,-5890.147369422013,0,0
12292.8625,3195.0158125396174,-5887.479185371458,0,0
12302.875,3191.692779514227,-5884.911234223056,0,0
12312.8875,3187.741982201282,-5882.183996135809,0,0
12322.9,3184.21481978017,-5879.45211823016,0,0
12332.9125,3180.3060676440678,-5876.414179436472,0,0
12342.925,3176.977580036119,-5873.629282255377,0,0
12352.9375,3173.367475573566,-5870.966501900895,0,0
12362.95,3169.8564646562163,-5868.0747858242885,0,0
12372.9625,3166.2250726852794,-5865.239900775602,0,0
12382.975,3162.549532968152,-5862.486896087049,0,0
12392.9875,3158.7228569466556,-5859.474169370429,0,0
12403.0,3155.333895657069,-5856.876859490274,0,0
12413.0125,3151.8807666373696,-5854.171214987068,0,0
12423.025,3148.3077900682642,-5851.177333932713,0,0
12433.0375,3144.4530027194046,-5848.445822376246,0,0
12443.05,3140.78739365973,-5845.617015439354,0,0
12453.0625,3137.4494600147946,-5842.5828907994555,0,0
12463.075,3133.947004666127,-5839.585376242892,0,0
12473.0875,3130.397452473846,-5836.6556705257535,0,0
12483.1,3127.4050607674367,-5833.718589888416,0,0
12493.1125,3123.5883650833152,-5830.90913328204,0,0
12503.125,3120.4599695331913,-5828.0856256389,0,0
12513.1375,3117.447943252714,-5825.138173248455,0,0
12523.15,3114.220498814139,-5822.366490495417,0,0
12533.1625,3111.0630433316483,-5819.722641728275,0,0
12543.175,3107.7507874403736,-5817.330935268585,0,0
12553.1875,3104.652850217044,-5814.605608859381,0,0
12563.2,3101.4400936309185,-5812.564938521886,0,0
12573.2125,3098.0486618474065,-5809.840045487608,0,0
12583.225,3094.2102851266636,-5807.3443920370955,0,0
12593.2375,3090.8507625340135,-5804.976499493318,0,0
12603.25,3087.3814165535377,-5802.178910734801,0,0
12613.2625,3083.6047884225973,-5799.305815321997,0,0
12623.275,3080.3511886011347,-5797.001766104425,0,0
12633.2875,3077.004581089722,-5794.335510349714,0,0
12643.3,3073.3171163944867,-5791.272570241493,0,0
12653.3125,3070.08124921393,-5788.699776598513,0,0
12663.325,3066.509401085215,-5786.000725005352,0,0
12673.3375,3063.2260530977132,-5783.321078523267,0,0
12683.35,3059.94128684118,-5780.6849585650825,0,0
12693.3625,3056.5509696859053,-5778.060273169633,0,0
12703.375,3052.8584389377274,-5775.144370703859,0,0
12713.3875,3049.8560087263504,-5772.6789024013315,0,0
12723.4,3046.3446463280484,-5769.986414105407,0,0
12733.4125,3043.000332855041,-5767.132423979274,0,0
12743.425,3039.5753749815212,-5764.538768646104,0,0
12753.4375,3036.3533123142215,-5761.919057218827,0,0
12763.45,3032.8677373120872,-5759.269549126842,0,0
12773.4625,3029.5956033347084,-5756.75936551582,0,0
12783.475,3026.403442275739,-5753.924866901007,0,0
12793.4875,3022.8119390727265,-5750.9280512228115,0,0
12803.5,3019.6644634802647,-5748.459349111646,0,0
12813.5125,3016.3419441601773,-5745.572680535779,0,0
12823.525,3013.1032396870514,-5742.855886791326,0,0
12833.5375,3009.765813809102,-5740.255660935414,0,0
12843.55,3006.360099902762,-5737.4712503038445,0,0
12853.5625,3003.321109232115,-5734.687665579892,0,0
12863.575,3000.0078349467653,-5732.1945829456545,0,0
12873.5875,2996.966908905453,-5729.572721695168,0,0
12883.6,2993.8589447488275,-5726.874003433154,0,0
12893.6125,2990.718672647458,-5724.225454900377,0,0
12903.625,2987.603225519265,-5721.729356531652,0,0
12913.6375,2984.2157463820927,-5719.1473388629565,0,0
12923.65,2981.1088095722025,-5716.3514682517625,0,0
12933.6625,2977.976215945415,-5713.914668967674,0,0
12943.675,2974.791525994747,-5711.49869664754,0,0
12953.6875,2971.174017359579,-5708.8311269388805,0,0
12963.7,2968.3889348721186,-5706.11936060842,0,0
12973.7125,2965.2119694876437,-5703.382146708712,0,0
12983.725,2962.3573151932155,-5700.876177288282,0,0
12993.7375,2958.826652384154,-5698.120586097997,0,0
13003.75,2955.671991440695,-5695.559038240477,0,0
13013.7625,2952.599415328808,-5693.090378544553,0,0
13023.775,2949.6575925778334,-5690.459855736697,0,0
13033.7875,2946.627347504531,-5688.286972775434,0,0
13043.8,2943.5123404432597,-5685.402172730485,0,0
13053.8125,2940.0401534618454,-5683.098445057245,0,0
13063.825,2936.9860258786034,-5680.343041706316,0,0
13073.8375,2933.8133171953427,-5677.863477646247,0,0
13083.85,2930.639289632509,-5675.380223374611,0,0
13093.8625,2927.542076042149,-5672.999056132733,0,0
13103.875,2924.2767762568565,-5670.299268764891,0,0
13113.8875,2921.071818216297,-5667.849325946596,0,0
13123.9,2918.2843571187186,-5665.558751013064,0,0
13133.9125,2915.214342354946,-5662.893513883956,0,0
13143.925,2911.933758855697,-5660.5473154645215,0,0
13153.9375,2908.791088591722,-5657.909514170232,0,0
13163.95,2905.810737839818,-5655.315539493288,0,0
13173.9625,2902.750468131347,-5652.774987064992,0,0
13183.975,2899.5842295614975,-5650.4676941426205,0,0
13193.9875,2896.4179323970116,-5648.2513487281185,0,0
13204.0,2893.248021803973,-5645.406340626036,0,0
13214.0125,2890.2442283850582,-5643.242436727255,0,0
13224.025,2886.935595765472,-5640.543874575256,0,0
13234.0375,2883.7339709757734,-5638.32499849579,0,0
13244.05,2880.6760074469757,-5635.842058299724,0,0
13254.0625,2877.4537839030513,-5633.33494609702,0,0
13264.075,2874.240814938333,-5630.777242074731,0,0
13274.0875,2871.1847265617607,-5628.518396849656,0,0
13284.1,2867.8378651992625,-5625.74588548814,0,0
13294.1125,2864.6213328633776,-5623.318383248912,0,0
13304.125,2861.5618476595077,-5620.818143839253,0,0
13314.1375,2858.16685383827,-5618.209820863331,0,0
13324.15,2855.2930145809305,-5615.721233510475,0,0
13334.1625,2851.696431977077,-5612.734824089816,0,0
13344.175,2848.753037786192,-5610.559480653853,0,0
13354.1875,2845.6624880837503,-5607.830020902274,0,0
13364.2,2842.235657634727,-5605.409647329043,0,0
13374.2125,2839.6556512461334,-5602.713014890237,0,0
13384.225,2836.603447350289,-5599.680310732693,0,0
13394.2375,2833.4425266248227,-5597.255638669929,0,0
13404.25,2830.7471746639085,-5595.281947081432,0,0
13414.2625,2827.4288243134724,-5592.618960303433,0,0
13424.275,2824.368708882931,-5589.887090026083,0,0
13434.2875,2821.1175831193227,-5587.581111383809,0,0
13444.3,2817.8927110663694,-5585.104894190215,0,0
13454.3125,2814.9430131467366,-5582.37388639851,0,0
13464.325,2812.263694653687,-5580.348841284542,0,0
13474.3375,2808.883258789733,-5577.678179355133,0,0
13484.35,2806.001315890026,-5574.970922771161,0,0
13494.3625,2802.8004901642216,-5572.417175994898,0,0
13504.375,2799.925605585788,-5569.7172687533985,0,0
13514.3875,2796.7219995851588,-5567.28813744584,0,0
13524.4,2793.729451308092,-5564.722564521696,0,0
13534.4125,2790.5735211660294,-5562.379853462192,0,0
13544.425,2787.7683061922266,-5559.7583170803855,0,0
13554.4375,2784.6821170407584,-5557.33593820475,0,0
13564.45,2781.741455029066,-5554.4886696304,0,0
13574.4625,2778.9783869674047,-5552.274682863088,0,0
13584.475,2776.2068898854122,-5550.185325244585,0,0
13594.4875,2772.8904922661377,-5547.409830919721,0,0
13604.5,2769.973283691686,-5544.534476673838,0,0
13614.5125,2766.479518641981,-5542.206047766248,0,0
13624.525,2763.7795356579913,-5539.400740088585,0,0
13634.5375,2760.838111434849,-5537.046842420188,0,0
13644.55,2758.03188950134,-5533.9691035279375,0,0
13654.5625,2754.909865952335,-5531.9213515220745,0,0
13664.575,2752.142571010315,-5529.227213439921,0,0
13674.5875,2748.6312748304936,-5525.975885975484,0,0
13684.6,2746.1255791016724,-5524.388321977664,0,0
13694.6125,2743.118029693387,-5521.49625852882,0,0
13704.625,2740.2472212641633,-5518.794822179652,0,0
13714.6375,2737.2677085205078,-5516.698642270492,0,0
13724.65,2734.484197070563,-5514.246226711793,0,0
13734.6625,2731.697625631063,-5511.614954349399,0,0
13744.675,2728.5540993351274,-5508.788464990418,0,0
13754.6875,2725.907486574109,-5506.543984851747,0,0
13764.7,2722.8057587686367,-5504.083859538608,0,0
13774.7125,2719.8237050768385,-5501.545315654562,0,0
