Frequency (Hz),Impedance (ohms),Phase (Radians),Temperature (C),Humidity (%)
10000.0,274.9342158906609,-12078.237930906917,0,0
10010.0125,274.92193778153603,-12065.403641011437,0,0
10020.025,275.0859063088217,-12052.330933935806,0,0
10030.0375,275.0462351035211,-12040.03382935619,0,0
10040.05,274.99622696898166,-12026.717234459542,0,0
10050.0625,276.36760844089645,-12014.669754819595,0,0
10060.075,278.1841914829398,-12001.883155567246,0,0
10070.0875,278.2714225764834,-11989.827336697614,0,0
10080.1,280.18403806097706,-11977.958072401349,0,0
10090.1125,282.16265244868157,-11965.997986614973,0,0
10100.125,284.643413318165,-11955.044602277778,0,0
10110.1375,286.01559868173325,-11944.534300661562,0,0
10120.15,287.52308068123574,-11934.85483458858,0,0
10130.1625,288.9550559918697,-11925.485458672874,0,0
10140.175,289.30555974437806,-11917.29960637419,0,0
10150.1875,288.84553136488677,-11909.418233109536,0,0
10160.2,287.5449680456308,-11900.48752459109,0,0
10170.2125,285.6596677815695,-11891.042504081186,0,0
10180.225,283.22303632245644,-11881.624413228325,0,0
10190.2375,280.4160359915996,-11870.270353801994,0,0
10200.25,277.4789978318302,-11859.408777156723,0,0
10210.2625,275.57504100108247,-11847.482322433138,0,0
10220.275,273.54582942004527,-11835.71978470021,0,0
10230.2875,272.4468700411052,-11823.107439544847,0,0
10240.3,271.03335153298156,-11811.171251087275,0,0
10250.3125,269.9119528365447,-11799.247903257366,0,0
10260.325,268.7790063506475,-11787.444582038639,0,0
10270.3375,268.3969110658049,-11775.608994569364,0,0
10280.35,267.8332933437936,-11763.619418500975,0,0
10290.3625,266.5097935668304,-11751.48383738202,0,0
10300.375,266.0122617614607,-11739.762263697558,0,0
10310.3875,265.578847154152,-11728.43924104242,0,0
10320.4,265.4505957700335,-11716.682354575849,0,0
10330.4125,264.8146802805242,-11705.448536875903,0,0
10340.425,264.3997976767014,-11693.331761044645,0,0
10350.4375,264.0721183124375,-11681.683074598399,0,0
10360.45,263.4186554055735,-11670.311072931183,0,0
10370.4625,263.128469112203,-11658.51857891724,0,0
10380.475,262.69614320316686,-11647.237504236262,0,0
10390.4875,262.80238314185357,-11636.525479697557,0,0
10400.5,261.93929241613023,-11623.905925513549,0,0
10410.5125,261.6744648934923,-11612.968374045635,0,0
10420.525,261.8813658948537,-11601.400215986749,0,0
10430.5375,260.99187727106664,-11589.609037399601,0,0
10440.55,260.6236605549542,-11579.05655647188,0,0
10450.5625,260.4101082147665,-11567.605047895673,0,0
10460.575,260.0375370920577,-11557.372273550467,0,0
10470.5875,260.27789089825654,-11545.126340708055,0,0
10480.6,259.90668425401077,-11534.243980446327,0,0
10490.6125,259.31311293945,-11522.950608217345,0,0
10500.625,259.07735672790614,-11511.848638400714,0,0
10510.6375,258.75656864852425,-11500.523066361613,0,0
10520.65,258.24742706862503,-11489.643662859067,0,0
10530.6625,258.9035387334966,-11478.701194487347,0,0
10540.675,258.58251058415425,-11467.671961611131,0,0
10550.6875,258.07907238139626,-11456.351364339183,0,0
10560.7,257.6992136449733,-11445.555097212658,0,0
10570.7125,257.773902898163,-11434.313982869424,0,0
10580.725,256.96723838665366,-11423.814088762794,0,0
10590.7375,257.0737598147052,-11412.505448167043,0,0
10600.75,257.2793965569975,-11401.63473357268,0,0
10610.7625,256.37430636648895,-11390.815581649627,0,0
10620.775,256.4914814619614,-11380.278999756441,0,0
10630.7875,256.30789126573507,-11368.459078660711,0,0
10640.8,256.0102369412139,-11358.264479544152,0,0
10650.8125,255.64516689531854,-11347.555651915061,0,0
10660.825,255.7780611244588,-11336.453128672145,0,0
10670.8375,255.08869133809705,-11325.900931474573,0,0
10680.85,255.29233585532307,-11315.430903045863,0,0
10690.8625,254.80167879583462,-11304.387686853595,0,0
10700.875,254.80971667944644,-11293.374713303796,0,0
10710.8875,254.8352980555842,-11283.292217816976,0,0
10720.9,254.17932793200478,-11272.608772362682,0,0
10730.9125,254.1691827117985,-11261.408557759905,0,0
10740.925,253.9134733403889,-11251.210990488009,0,0
10750.9375,254.1394386452958,-11240.041993436342,0,0
10760.95,253.69093257035982,-11228.977115670627,0,0
10770.9625,253.49325508111892,-11218.98546415283,0,0
10780.975,254.02975430760878,-11208.696545051376,0,0
10790.9875,253.26425848049962,-11198.05634133669,0,0
10801.0,253.46530296426664,-11187.655489461004,0,0
10811.0125,253.14536785320973,-11177.074957671955,0,0
10821.025,253.15006230162902,-11167.03071915319,0,0
10831.0375,252.93195019242765,-11156.222054765176,0,0
10841.05,252.63260093437268,-11145.960680395727,0,0
10851.0625,252.59780533860587,-11135.926885684572,0,0
10861.075,252.73136662601465,-11125.214678278073,0,0
10871.0875,251.8839914873876,-11114.909625188726,0,0
10881.1,251.85865360282048,-11104.430920440724,0,0
10891.1125,252.06868377939026,-11093.971907286437,0,0
10901.125,252.2826002294734,-11083.561535490484,0,0
10911.1375,251.93612498321247,-11073.65001158685,0,0
10921.15,251.71973883923178,-11062.746219894385,0,0
10931.1625,251.53669417691526,-11052.843008188049,0,0
10941.175,251.50610283093988,-11042.429244958772,0,0
10951.1875,251.22180274086242,-11032.476380958902,0,0
10961.2,251.52492547105754,-11021.927855000971,0,0
10971.2125,251.2011833731309,-11011.921823513114,0,0
10981.225,251.5189176524118,-11002.172587555579,0,0
10991.2375,251.38536869039754,-10991.790991455455,0,0
11001.25,251.14324269410483,-10981.779193293793,0,0
11011.2625,250.99303801751597,-10971.602997802764,0,0
11021.275,250.9578771509466,-10961.376654370877,0,0
11031.2875,250.6223548688439,-10951.56354599368,0,0
11041.3,250.96832045734064,-10941.688205222792,0,0
11051.3125,250.73011557737803,-10932.06006340918,0,0
11061.325,250.10979711369868,-10921.906731819086,0,0
11071.3375,250.50782440254807,-10911.882738496508,0,0
11081.35,250.4322370326225,-10902.037842543294,0,0
11091.3625,250.08212541276242,-10892.04123790419,0,0
11101.375,250.2857699056713,-10882.373009082427,0,0
11111.3875,249.6336773269848,-10872.407993956127,0,0
11121.4,249.73490877301165,-10862.611005596118,0,0
11131.4125,249.83237977933433,-10852.543473915175,0,0
11141.425,249.3221461206914,-10842.699982727867,0,0
11151.4375,249.43236132285716,-10832.833773050754,0,0
11161.45,248.97069929216596,-10822.964768637208,0,0
11171.4625,248.98758586207762,-10812.909552057195,0,0
11181.475,248.8879749011262,-10803.508415958875,0,0
11191.4875,248.4748759337708,-10793.257379939307,0,0
11201.5,248.4393467903733,-10783.64793649793,0,0
11211.5125,248.70171530028236,-10773.638469393956,0,0
11221.525,248.55374692454413,-10763.828248269316,0,0
11231.5375,248.45899503591085,-10754.082477643513,0,0
11241.55,248.13796761588054,-10743.963941125761,0,0
11251.5625,248.0096841808641,-10734.344641818603,0,0
11261.575,248.41864438148204,-10724.74838105319,0,0
11271.5875,248.0499339826005,-10715.075425797215,0,0
11281.6,248.2435887769245,-10705.146708761771,0,0
11291.6125,247.10319100639416,-10695.621593964957,0,0
11301.625,247.81739847669152,-10686.098515023084,0,0
11311.6375,247.62754758543886,-10676.288066891282,0,0
11321.65,247.91180569634787,-10666.441824796337,0,0
11331.6625,247.70993177206682,-10656.762696443828,0,0
11341.675,247.2871104741148,-10647.464881960837,0,0
11351.6875,247.89889669878,-10637.592304128913,0,0
11361.7,247.70602442192492,-10627.551728021797,0,0
11371.7125,247.39598019022267,-10617.818400373773,0,0
11381.725,247.9797620715461,-10608.55586792711,0,0
11391.7375,247.7530771214944,-10599.067075138735,0,0
11401.75,249.22162645577035,-10588.501523201146,0,0
11411.7625,247.93486837198873,-10579.819390845043,0,0
11421.775,248.41744933814323,-10569.998585979407,0,0
11431.7875,248.05862116537466,-10560.634129684906,0,0
11441.8,248.45478757205439,-10550.78007057424,0,0
11451.8125,248.42530242925935,-10541.208236083146,0,0
11461.825,249.021829698808,-10532.166261144348,0,0
11471.8375,248.84328241150723,-10522.228914937548,0,0
11481.85,248.96757449216258,-10512.95884022369,0,0
11491.8625,249.31687654113773,-10503.605684626787,0,0
11501.875,249.04467321259645,-10493.426708976865,0,0
11511.8875,249.53459666168456,-10483.947437013872,0,0
11521.9,249.89880584519764,-10474.77113510088,0,0
11531.9125,250.5248991532982,-10465.659216005983,0,0
11541.925,250.6658009072806,-10455.850756215055,0,0
11551.9375,251.29422709660219,-10445.918499622547,0,0
11561.95,251.95651395766518,-10437.068378399554,0,0
11571.9625,251.81737197556203,-10427.081872943198,0,0
11581.975,252.5511231827982,-10418.9922671747,0,0
11591.9875,252.74830805785564,-10408.790450330791,0,0
11602.0,254.17886189225914,-10400.170782497387,0,0
11612.0125,254.40792987992737,-10390.789943725222,0,0
11622.025,254.4654284342341,-10382.595080754905,0,0
11632.0375,256.0626226187484,-10373.058652812144,0,0
11642.05,256.4412771816156,-10363.873037245501,0,0
11652.0625,256.4756414779372,-10355.917291628608,0,0
11662.075,257.0944223678528,-10347.510982922431,0,0
11672.0875,257.91404889755944,-10338.311815368914,0,0
11682.1,257.95170656763406,-10330.142543823202,0,0
11692.1125,258.01525759912346,-10321.450948732268,0,0
11702.125,257.8560101976398,-10312.904256434113,0,0
11712.1375,257.6930949453768,-10304.46524418849,0,0
11722.15,258.0330427113202,-10295.80735675578,0,0
11732.1625,257.9933628274466,-10286.35172328999,0,0
11742.175,258.04478167208174,-10277.917568845394,0,0
11752.1875,257.7287337833306,-10268.87702034466,0,0
11762.2,258.0474070512895,-10259.914843211516,0,0
11772.2125,258.45111595630567,-10251.142124530394,0,0
11782.225,258.58569275088405,-10241.72463395309,0,0
11792.2375,259.190741489224,-10232.22300689227,0,0
11802.25,259.8317541358829,-10223.402540085846,0,0
11812.2625,260.5728062673951,-10214.562130939885,0,0
11822.275,261.4981246178207,-10206.009029692394,0,0
11832.2875,262.27905324260576,-10197.575279182278,0,0
11842.3,262.9402679410961,-10188.845284272487,0,0
11852.3125,264.27737799866543,-10180.05824562977,0,0
11862.325,265.0816327498005,-10172.314287939062,0,0
11872.3375,265.6605030713631,-10164.256607261817,0,0
11882.35,266.62199879422633,-10156.302046167659,0,0
11892.3625,267.1838917535202,-10148.520834174149,0,0
11902.375,266.9027831414248,-10140.646380524935,0,0
11912.3875,267.177525644623,-10133.38130232101,0,0
11922.4,266.09249332338635,-10125.528530072868,0,0
11932.4125,266.0586849242085,-10117.601264124589,0,0
11942.425,265.0677783578307,-10109.026696945233,0,0
11952.4375,264.3957236768798,-10100.956237949633,0,0
11962.45,264.02652581478526,-10091.68696016926,0,0
11972.4625,263.489021418069,-10082.720665940837,0,0
11982.475,263.0059399208082,-10073.61998504894,0,0
11992.4875,263.31649650041567,-10063.817566223943,0,0
12002.5,263.490868240835,-10054.004935897387,0,0
12012.5125,263.96699246621876,-10044.510483678418,0,0
12022.525,264.34471520686384,-10035.115405998444,0,0
12032.5375,265.27105538220746,-10025.512239644833,0,0
12042.55,266.43602064161536,-10016.016068134464,0,0
12052.5625,267.84316496167975,-10006.883122483161,0,0
12062.575,269.51141673564643,-9996.665240497765,0,0
12072.5875,270.90273716771196,-9987.909991070925,0,0
12082.6,272.6000005133139,-9978.895732198434,0,0
12092.6125,274.7612907382394,-9969.775583055223,0,0
12102.625,277.25102259448096,-9960.953235064497,0,0
12112.6375,279.2410539288394,-9952.341175838985,0,0
12122.65,281.75081816315037,-9944.262720646344,0,0
12132.6625,284.0868638913648,-9935.72486052659,0,0
12142.675,287.1930990461012,-9927.603645463041,0,0
12152.6875,290.1997094096428,-9920.04207823454,0,0
12162.7,293.1724401910995,-9912.954371116857,0,0
12172.7125,296.01014204916197,-9905.388455421724,0,0
12182.725,299.6306330641434,-9898.590728104253,0,0
12192.7375,302.5519253266967,-9892.084179920515,0,0
12202.75,306.22528369344263,-9885.982226226457,0,0
12212.7625,309.35597254231425,-9880.327960119746,0,0
12222.775,312.4649787317375,-9875.553778367022,0,0
12232.7875,315.56947425137986,-9870.725164400497,0,0
12242.8,318.14642892016747,-9866.97384505793,0,0
12252.8125,320.5060393662204,-9863.47839606019,0,0
12262.825,322.3662525443753,-9860.336705246518,0,0
12272.8375,323.50506822046367,-9857.350585552947,0,0
12282.85,324.1973988939582,-9855.461102861374,0,0
12292.8625,324.2480932481517,-9852.64005181541,0,0
12302.875,323.1912379150067,-9850.423918897206,0,0
12312.8875,321.19104984901196,-9847.953223777906,0,0
12322.9,319.0888924869677,-9845.252661468316,0,0
12332.9125,315.3079809851487,-9841.804998315034,0,0
12342.925,311.68387339686535,-9838.041569537418,0,0
12352.9375,307.58879944807626,-9833.549942802001,0,0
12362.95,302.3858245796065,-9827.903524774067,0,0
12372.9625,298.32369064330953,-9822.14362057717,0,0
12382.975,293.7569694003097,-9815.417521869233,0,0
12392.9875,289.41164268518895,-9807.448562139634,0,0
12403.0,285.65334390291883,-9799.835671150839,0,0
12413.0125,282.18114236896344,-9791.133405484534,0,0
12423.025,279.17823533772645,-9782.519752631377,0,0
12433.0375,276.6119387936495,-9773.79536713011,0,0
12443.05,274.5375630511593,-9764.71412233633,0,0
12453.0625,272.84766269649555,-9756.145927180334,0,0
12463.075,271.3655209143578,-9746.884987149433,0,0
12473.0875,270.1028417299645,-9738.473778542648,0,0
12483.1,269.0732967896571,-9729.860436553101,0,0
12493.1125,268.017424354696,-9722.034068771474,0,0
12503.125,266.93978646993094,-9713.828732280339,0,0
12513.1375,265.5347549724921,-9705.163789595772,0,0
12523.15,264.9230526852542,-9696.736621688906,0,0
12533.1625,263.9397851450277,-9688.907153553515,0,0
12543.175,262.69937260093616,-9680.85251954366,0,0
12553.1875,261.5609911237705,-9672.223247085698,0,0
12563.2,261.1617614383984,-9663.731726654585,0,0
12573.2125,259.767971045799,-9655.390384551652,0,0
12583.225,259.46704849724074,-9645.913141685587,0,0
12593.2375,258.4306833300693,-9637.627923214774,0,0
12603.25,258.50156647482146,-9628.44528744845,0,0
12613.2625,257.48415545482027,-9619.56040816917,0,0
12623.275,258.3999120361773,-9610.620748368616,0,0
12633.2875,258.5080804438107,-9601.420707621071,0,0
12643.3,258.8866707885189,-9593.115553350519,0,0
12653.3125,260.66974987372276,-9584.336231363683,0,0
12663.325,261.70994858469277,-9575.581888021588,0,0
12673.3375,262.88082839386436,-9567.562769876022,0,0
12683.35,264.69832280011957,-9559.698480520014,0,0
12693.3625,266.8684024977254,-9552.792228677887,0,0
12703.375,268.98093150644746,-9545.573904386361,0,0
12713.3875,270.72119293678236,-9538.69536844082,0,0
12723.4,272.1413684839086,-9532.455295213878,0,0
12733.4125,273.66430549848457,-9527.20307636555,0,0
12743.425,274.9815322023379,-9521.95588127889,0,0
12753.4375,275.7626900712845,-9516.402730589243,0,0
12763.45,276.51149364272914,-9511.38185504029,0,0
12773.4625,276.6430325232153,-9506.623889227983,0,0
12783.475,276.5707268692999,-9501.899054825128,0,0
12793.4875,275.79182354513273,-9496.617968866278,0,0
12803.5,274.6955779259282,-9492.073046837188,0,0
12813.5125,273.54875217464433,-9487.053928645415,0,0
12823.525,271.577240406731,-9481.498831175773,0,0
12833.5375,269.8006988848662,-9476.008699637547,0,0
12843.55,268.5648174277721,-9469.7598272844,0,0
12853.5625,266.3947265546667,-9463.840321678743,0,0
12863.575,264.72300994682865,-9457.452377493142,0,0
12873.5875,262.9985850250264,-9450.66776339733,0,0
12883.6,260.9826339402337,-9443.942484278929,0,0
12893.6125,259.1510689378748,-9437.203464941946,0,0
12903.625,257.19186565345154,-9430.188738322975,0,0
12913.6375,255.84824987595204,-9423.37930828505,0,0
12923.65,253.91680376745043,-9415.923368890422,0,0
12933.6625,252.452560175039,-9408.546664096928,0,0
12943.675,251.03555470260187,-9401.110156936624,0,0
12953.6875,249.7671191351345,-9393.677157314376,0,0
12963.7,248.60768418694838,-9386.347987507006,0,0
12973.7125,246.9544469630214,-9378.869665511653,0,0
12983.725,245.9191892958722,-9371.208603989278,0,0
12993.7375,244.85552308912742,-9363.291978197256,0,0
13003.75,243.76594425203191,-9355.977793960994,0,0
13013.7625,242.5803480494657,-9348.078777967827,0,0
13023.775,241.92527706501772,-9340.361179670173,0,0
13033.7875,241.10127781359992,-9332.679441698241,0,0
13043.8,240.1616570891388,-9324.89768797773,0,0
13053.8125,239.7671045229232,-9317.804270087314,0,0
13063.825,239.1368746333377,-9309.820126290864,0,0
13073.8375,238.48653715165122,-9302.470439562087,0,0
13083.85,237.6272953262367,-9294.744875533868,0,0
13093.8625,237.7211978582968,-9287.252179037918,0,0
13103.875,237.02528276620896,-9279.844624279072,0,0
13113.8875,236.8264152433574,-9272.200314879732,0,0
13123.9,236.4678195253835,-9264.746326270772,0,0
13133.9125,236.82472079708864,-9257.497308863485,0,0
13143.925,236.35239707519108,-9249.946899751574,0,0
13153.9375,236.2156700090296,-9242.02861398389,0,0
13163.95,236.12926890838074,-9235.089058235808,0,0
13173.9625,236.10513089487284,-9227.681252483188,0,0
13183.975,236.37640199407187,-9220.868713092572,0,0
13193.9875,236.91097226716465,-9213.837660023937,0,0
13204.0,236.48661615225558,-9206.428082268287,0,0
13214.0125,236.88759565225348,-9200.183418956487,0,0
13224.025,237.14633452346484,-9193.177673997498,0,0
13234.0375,236.96405398908144,-9186.272735739129,0,0
13244.05,237.18026077837865,-9179.58078632957,0,0
13254.0625,237.15832155753208,-9173.788471279613,0,0
13264.075,237.2033170459036,-9167.260385303749,0,0
13274.0875,237.30443975213967,-9161.099383936606,0,0
13284.1,236.6685458703926,-9155.025640854019,0,0
13294.1125,236.2469402493544,-9149.001488624488,0,0
13304.125,235.3608420742435,-9142.805992356474,0,0
13314.1375,234.57292953834258,-9136.707393201294,0,0
13324.15,233.8654136723826,-9130.358354120543,0,0
13334.1625,232.46627992864873,-9123.785460919946,0,0
13344.175,231.21912711005493,-9117.366781736475,0,0
13354.1875,230.34377145574283,-9110.58365671312,0,0
13364.2,229.13960232164845,-9103.800695312399,0,0
13374.2125,227.82578492375734,-9096.630640324856,0,0
13384.225,226.710884689838,-9090.18205390125,0,0
13394.2375,225.95415418379332,-9082.409222727038,0,0
13404.25,224.90716278879185,-9075.41216099104,0,0
13414.2625,224.23953479982566,-9067.67211548202,0,0
13424.275,223.68176633107865,-9060.711955633702,0,0
13434.2875,222.8044522433773,-9053.158383480011,0,0
13444.3,222.33157114951933,-9045.726062800326,0,0
13454.3125,222.04029401731816,-9038.122979451773,0,0
13464.325,221.86241287458554,-9030.408195732953,0,0
13474.3375,221.72541853016594,-9023.364368735593,0,0
13484.35,221.65135866843718,-9015.866756479329,0,0
13494.3625,221.58668868112525,-9008.774724394136,0,0
13504.375,221.69003523446162,-9001.26207339327,0,0
13514.3875,221.8157812586164,-8994.118195456036,0,0
13524.4,222.31646412675815,-8986.908342045162,0,0
13534.4125,223.24514877987366,-8980.458544172434,0,0
13544.425,223.72458211405362,-8972.897728090842,0,0
13554.4375,223.9049910579787,-8966.77018798295,0,0
13564.45,225.16623929017956,-8960.309175637874,0,0
13574.4625,225.12665330637165,-8953.755290005223,0,0
13584.475,225.57066642514448,-8948.02234616792,0,0
13594.4875,226.58138536932373,-8942.30251000367,0,0
13604.5,227.13224538193182,-8936.106885596817,0,0
13614.5125,226.87443653714072,-8930.699522721037,0,0
13624.525,226.25905935362454,-8925.092499884657,0,0
13634.5375,225.49076130361627,-8920.469432927443,0,0
13644.55,224.71010792352124,-8914.825555698197,0,0
13654.5625,224.0913396973351,-8909.676758965961,0,0
13664.575,222.95337796844527,-8903.923231065186,0,0
13674.5875,221.4878367129072,-8897.640831749732,0,0
13684.6,220.18973065492716,-8891.169440525486,0,0
13694.6125,218.7820217218062,-8884.776737416181,0,0
13704.625,217.8406075444599,-8877.61974691907,0,0
13714.6375,216.75452695334644,-8870.699228598109,0,0
13724.65,216.71490500469187,-8863.767536655621,0,0
13734.6625,215.43129559112344,-8857.662131919828,0,0
13744.675,214.17062669903456,-8850.9119647479,0,0
