Frequency (Hz),Impedance (ohms),Phase (Radians),Temperature (C),Humidity (%)
10000.0,272.6725253441413,-12124.011672144989,0,0
10010.0125,273.1227729580926,-12111.924719549706,0,0
10020.025,273.0674721951273,-12099.18722543476,0,0
10030.0375,273.75518254783776,-12086.430248684057,0,0
10040.05,273.9727199310061,-12073.730132261315,0,0
10050.0625,274.08905623104545,-12061.233872810702,0,0
10060.075,274.8208759396235,-12048.260712380998,0,0
10070.0875,276.3403666694867,-12035.261171171413,0,0
10080.1,277.65704887577147,-12022.969608971674,0,0
10090.1125,279.52934086147263,-12011.471276973854,0,0
10100.125,281.39173944459077,-11999.8672201997,0,0
10110.1375,283.60292176425986,-11988.882782009052,0,0
10120.15,285.9819052190024,-11978.833083673464,0,0
10130.1625,287.5904378102205,-11969.459858563152,0,0
10140.175,288.9893315180696,-11960.7857406085,0,0
10150.1875,289.42317664170747,-11952.963547740845,0,0
10160.2,287.932730874324,-11944.951759458538,0,0
10170.2125,286.13171276342683,-11936.671611593276,0,0
10180.225,283.2129709119547,-11927.502116485319,0,0
10190.2375,280.1414055494859,-11916.827498226641,0,0
10200.25,276.8747827835117,-11905.632599639246,0,0
10210.2625,274.2576578217142,-11893.951827745528,0,0
10220.275,272.83302620272013,-11881.699129550108,0,0
10230.2875,271.3551736293195,-11869.16770946574,0,0
10240.3,269.6236438762229,-11857.177694270975,0,0
10250.3125,268.87719134572325,-11845.059615913378,0,0
10260.325,267.37919027845976,-11832.71825627865,0,0
10270.3375,266.4904893569532,-11820.903377017064,0,0
10280.35,266.16373205411196,-11808.757777635008,0,0
10290.3625,265.51314747299915,-11796.883302849386,0,0
10300.375,264.9960315537924,-11785.534873071489,0,0
10310.3875,264.12843668743307,-11773.65654196583,0,0
10320.4,263.8568193858905,-11761.607060317043,0,0
10330.4125,263.46271509046267,-11750.174188058947,0,0
10340.425,262.94682053451845,-11738.133036569825,0,0
10350.4375,262.3302229986143,-11726.449773513892,0,0
10360.45,262.1000046626077,-11715.04397536616,0,0
10370.4625,261.3842845513167,-11703.35368025797,0,0
10380.475,261.3081802361376,-11692.086890979053,0,0
10390.4875,260.5763149764935,-11680.467777992411,0,0
10400.5,260.5055715135891,-11668.89753319995,0,0
10410.5125,259.8890921098418,-11657.60582400278,0,0
10420.525,259.81586248248414,-11646.149276028222,0,0
10430.5375,259.2703036498538,-11634.769103570421,0,0
10440.55,259.3690323294616,-11623.43860485891,0,0
10450.5625,258.76673376499286,-11611.691124983263,0,0
10460.575,258.49991125428926,-11600.772528304875,0,0
10470.5875,258.5779378760243,-11589.49258971208,0,0
10480.6,258.1747950148302,-11578.133292096309,0,0
10490.6125,257.93501395336114,-11566.647473108198,0,0
10500.625,257.56789306613786,-11555.617558836764,0,0
10510.6375,257.40842154098783,-11544.702491521337,0,0
10520.65,257.1854431816441,-11533.597180641029,0,0
10530.6625,256.8139882675229,-11522.561403429396,0,0
10540.675,256.7358491388437,-11511.61827422143,0,0
10550.6875,256.77786353735456,-11500.104992264733,0,0
10560.7,256.1600786891733,-11489.16663057536,0,0
10570.7125,255.87317969272206,-11478.087957224547,0,0
10580.725,255.62575543103705,-11467.01903252927,0,0
10590.7375,255.5544082014757,-11456.389305565735,0,0
10600.75,255.2099709037466,-11445.49565922594,0,0
10610.7625,255.29396606558964,-11434.452189953974,0,0
10620.775,254.5545586453157,-11423.66683904785,0,0
10630.7875,254.58282458764245,-11412.316855825036,0,0
10640.8,254.14399375426365,-11401.727614753463,0,0
10650.8125,254.07103142885995,-11390.969165370137,0,0
10660.825,253.9616209298391,-11380.275410634755,0,0
10670.8375,253.85493992717537,-11369.135943436379,0,0
10680.85,253.60637483552208,-11358.645806292745,0,0
10690.8625,253.39007221991875,-11347.509103408505,0,0
10700.875,253.14868051917094,-11336.856660378924,0,0
10710.8875,252.93414715948188,-11326.020738382123,0,0
10720.9,252.9318857153611,-11315.204198382873,0,0
10730.9125,252.50593195119373,-11304.297783293281,0,0
10740.925,252.80910780280706,-11293.854660211293,0,0
10750.9375,252.20166000768978,-11283.07132099278,0,0
10760.95,252.25103232176014,-11272.29687661525,0,0
10770.9625,252.14027102677568,-11261.797447893929,0,0
10780.975,252.01330420789512,-11251.057411604968,0,0
10790.9875,251.9660010497353,-11240.903818694713,0,0
10801.0,251.90685293011617,-11230.059502251463,0,0
10811.0125,251.4462787522212,-11219.62205040665,0,0
10821.025,251.7366081501254,-11208.828551258943,0,0
10831.0375,251.41251450432785,-11198.617818742401,0,0
10841.05,251.25950618012385,-11188.235249483454,0,0
10851.0625,251.13901110563026,-11178.265047217186,0,0
10861.075,251.06938926003434,-11167.58921697629,0,0
10871.0875,250.91009344338178,-11157.24337959507,0,0
10881.1,250.80144515922166,-11147.14547415189,0,0
10891.1125,250.51928468523425,-11136.42948498465,0,0
10901.125,250.46090710654929,-11126.135791390829,0,0
10911.1375,250.49164387309875,-11115.894125191706,0,0
10921.15,250.6006018228826,-11105.41257797439,0,0
10931.1625,250.12405663840698,-11095.199806746852,0,0
10941.175,249.73170883801149,-11084.943514759027,0,0
10951.1875,249.97345449792797,-11074.624904347236,0,0
10961.2,250.22336281936282,-11064.079694341255,0,0
10971.2125,250.25231667514097,-11053.97984758881,0,0
10981.225,250.13164229746937,-11044.448569247863,0,0
10991.2375,249.65035285267822,-11034.069329745167,0,0
11001.25,249.76419687135007,-11023.694925775286,0,0
11011.2625,249.78313111543474,-11013.46797710688,0,0
11021.275,249.44158096984347,-11003.80504187124,0,0
11031.2875,249.63278573725967,-10993.610947818963,0,0
11041.3,249.606119193773,-10983.325491686131,0,0
11051.3125,249.19765877741435,-10973.336746343539,0,0
11061.325,249.32999800494594,-10963.428024832878,0,0
11071.3375,249.20760805288097,-10953.616857547067,0,0
11081.35,248.994889205081,-10943.600357320292,0,0
11091.3625,248.90475241787925,-10933.612242365796,0,0
11101.375,248.81322038095135,-10923.776114352991,0,0
11111.3875,248.3587527039487,-10913.645040991581,0,0
11121.4,248.368647575467,-10903.598278725487,0,0
11131.4125,248.24175990520888,-10893.858703534192,0,0
11141.425,248.016649088067,-10884.10821701366,0,0
11151.4375,247.56729039186555,-10874.060131298234,0,0
11161.45,247.87926319328542,-10864.252893323584,0,0
11171.4625,247.9002794521656,-10853.83930011959,0,0
11181.475,247.34702068230789,-10844.372307763291,0,0
11191.4875,247.23532307862868,-10834.582336801459,0,0
11201.5,247.24169951999167,-10824.565438545553,0,0
11211.5125,247.1424742288588,-10814.664502108046,0,0
11221.525,247.3216285332433,-10805.017686358658,0,0
11231.5375,246.94532686738094,-10795.294308050396,0,0
11241.55,247.05751289659102,-10784.997158710448,0,0
11251.5625,247.15802562885395,-10775.758435917027,0,0
11261.575,246.63229038467196,-10765.694853799634,0,0
11271.5875,246.5931782222664,-10756.003628129449,0,0
11281.6,246.46607721290033,-10746.17453232068,0,0
11291.6125,246.27988807477408,-10736.310744031758,0,0
11301.625,246.37153857434697,-10726.363183405136,0,0
11311.6375,246.5663150056163,-10716.420201468869,0,0
11321.65,246.17228913514924,-10706.969919606801,0,0
11331.6625,246.3096509896929,-10697.47835591964,0,0
11341.675,246.20809258351593,-10687.199788692855,0,0
11351.6875,246.7679269537052,-10677.847020209305,0,0
11361.7,246.53303137393962,-10667.908946036163,0,0
11371.7125,246.47455159645213,-10658.621733837279,0,0
11381.725,246.1069684537219,-10649.029688528868,0,0
11391.7375,246.2030441913686,-10639.317638578761,0,0
11401.75,247.5216548443433,-10628.342029416139,0,0
11411.7625,246.76578462960651,-10619.313372420265,0,0
11421.775,246.5846358107906,-10610.402853831949,0,0
11431.7875,246.45411297487996,-10600.631231231788,0,0
11441.8,246.75593005065005,-10590.81577406906,0,0
11451.8125,247.07641747437174,-10581.460915202608,0,0
11461.825,247.1777748655045,-10571.493559212066,0,0
11471.8375,247.16240431827947,-10561.949279711025,0,0
11481.85,247.4523226152723,-10552.713949487486,0,0
11491.8625,247.6585913907191,-10543.184889647859,0,0
11501.875,247.89664783691146,-10533.600378761748,0,0
11511.8875,248.4179137179454,-10523.644000428423,0,0
11521.9,248.33224238507185,-10514.187698959022,0,0
11531.9125,248.83255131478901,-10504.661905757173,0,0
11541.925,248.81776425473703,-10495.091469326073,0,0
11551.9375,249.7626038837237,-10486.065576434487,0,0
11561.95,250.36980197155683,-10476.464267632344,0,0
11571.9625,250.47599289672416,-10466.961047779281,0,0
11581.975,250.66167440519376,-10457.612982178225,0,0
11591.9875,251.65485292751347,-10448.470150498535,0,0
11602.0,252.43017800908314,-10439.433964848755,0,0
11612.0125,252.54051139155655,-10430.334884087704,0,0
11622.025,253.82433090035317,-10420.88148968832,0,0
11632.0375,254.56840653679149,-10412.113295597941,0,0
11642.05,254.5560202543865,-10402.73008622889,0,0
11652.0625,256.0993571758747,-10394.279583336403,0,0
11662.075,255.98592506054274,-10385.600265765865,0,0
11672.0875,256.9220790792047,-10377.184044967773,0,0
11682.1,257.27167802186125,-10368.375625967077,0,0
11692.1125,257.93138154238574,-10360.666646366562,0,0
11702.125,258.4094849917109,-10351.587085772457,0,0
11712.1375,257.99735215507957,-10343.570368511906,0,0
11722.15,258.4046199632569,-10334.944506902642,0,0
11732.1625,258.0480908009939,-10326.102135996605,0,0
11742.175,257.64689285017363,-10317.71498103752,0,0
11752.1875,258.17531716797805,-10308.531914687968,0,0
11762.2,257.98437599670075,-10299.65899584979,0,0
11772.2125,257.9039627678135,-10290.496782782657,0,0
11782.225,257.9160963239968,-10281.3412622197,0,0
11792.2375,258.13799146046006,-10271.5952579489,0,0
11802.25,258.36233098631794,-10263.079352002924,0,0
11812.2625,258.527311899941,-10253.819154518294,0,0
11822.275,259.5876634074491,-10244.374634709857,0,0
11832.2875,260.41117388530904,-10235.848433121722,0,0
11842.3,261.48664436924963,-10226.657801884625,0,0
11852.3125,262.4381299767277,-10218.53015049189,0,0
11862.325,263.72294527763825,-10210.006078641327,0,0
11872.3375,264.6955198320753,-10201.585088276212,0,0
11882.35,265.7065644887036,-10193.688278766069,0,0
11892.3625,266.2752400965282,-10185.485642284995,0,0
11902.375,266.9723686604256,-10178.088645429867,0,0
11912.3875,268.0336793078521,-10170.694099540753,0,0
11922.4,267.57410602434885,-10163.301188360501,0,0
11932.4125,267.0290393509928,-10155.949195984787,0,0
11942.425,267.2423192787268,-10148.185453525994,0,0
11952.4375,266.3010336287745,-10140.694984618754,0,0
11962.45,265.3022884970169,-10131.900108916285,0,0
11972.4625,264.20621168357303,-10123.672103127305,0,0
11982.475,263.18987480859266,-10113.911878257368,0,0
11992.4875,261.9245083241102,-10104.770663885582,0,0
12002.5,262.05916042621914,-10095.277703081067,0,0
12012.5125,261.7391538331764,-10085.757626981345,0,0
12022.525,262.3277723689254,-10075.84668565824,0,0
12032.5375,262.80359818826463,-10065.720358028462,0,0
12042.55,263.4358053102676,-10056.287312850016,0,0
12052.5625,264.298580052165,-10046.801014615567,0,0
12062.575,265.48102564598133,-10036.948953775132,0,0
12072.5875,267.1519838648102,-10027.060941467565,0,0
12082.6,269.1360277163251,-10017.767039217237,0,0
12092.6125,270.46628723629266,-10008.56211429215,0,0
12102.625,272.1505395581367,-9999.53165669719,0,0
12112.6375,274.6149520539499,-9990.36195106634,0,0
12122.65,277.0587733371303,-9981.94417663937,0,0
12132.6625,279.75653240107005,-9973.185758210584,0,0
12142.675,282.63506954746754,-9964.77254070873,0,0
12152.6875,284.87518062312796,-9956.453960563653,0,0
12162.7,288.31133325217843,-9948.606901232726,0,0
12172.7125,291.0878292633049,-9940.903864099502,0,0
12182.725,294.8781726796678,-9933.844952482674,0,0
12192.7375,298.2021888279695,-9926.46045970412,0,0
12202.75,301.2951676779576,-9919.837833220845,0,0
12212.7625,305.07263766499455,-9913.977660679684,0,0
12222.775,308.1701295260435,-9907.584678609655,0,0
12232.7875,311.46374753145045,-9902.568671954687,0,0
12242.8,314.93351567448804,-9898.217446551474,0,0
12252.8125,317.8741765808435,-9894.256195800523,0,0
12262.825,320.68690046337395,-9889.99871117791,0,0
12272.8375,322.4181662735636,-9886.479456545656,0,0
12282.85,324.28150498377664,-9883.666032229374,0,0
12292.8625,325.5458920736167,-9881.623353078217,0,0
12302.875,325.3912074569155,-9879.412661723938,0,0
12312.8875,325.32286399287585,-9876.559686566074,0,0
12322.9,324.16723182305856,-9874.958038522373,0,0
12332.9125,321.4908359355205,-9872.604747931942,0,0
12342.925,319.24017955406015,-9869.824885902772,0,0
12352.9375,314.73961080431525,-9866.390087803062,0,0
12362.95,311.1871734897308,-9862.547473277327,0,0
12372.9625,306.20030066520826,-9857.864750731414,0,0
12382.975,301.92662309453925,-9852.199922800282,0,0
12392.9875,297.0046003125809,-9845.527476181383,0,0
12403.0,292.71510216458626,-9838.922422388769,0,0
12413.0125,288.57956804531295,-9830.518614886869,0,0
12423.025,284.89647756173844,-9822.394979597773,0,0
12433.0375,281.47965769082475,-9814.08943282778,0,0
12443.05,279.0449989839152,-9805.192597343821,0,0
12453.0625,276.8371816761302,-9796.287484192751,0,0
12463.075,274.585136995232,-9787.564277435744,0,0
12473.0875,273.0661974674933,-9779.117148974323,0,0
12483.1,271.76280686128155,-9770.606947997836,0,0
12493.1125,270.3743296452042,-9762.0093266429,0,0
12503.125,269.295169938706,-9753.865379345838,0,0
12513.1375,267.9914372633133,-9745.576946081168,0,0
12523.15,266.9620097437747,-9737.845047499444,0,0
12533.1625,265.8200244204523,-9729.519445080636,0,0
12543.175,264.426215021016,-9721.699220193705,0,0
12553.1875,263.17042737197914,-9713.485543981196,0,0
12563.2,261.9694694458721,-9705.338713418098,0,0
12573.2125,260.7095547072975,-9697.005328726153,0,0
12583.225,259.27331247302124,-9688.575001377738,0,0
12593.2375,258.01327181354776,-9679.720119532869,0,0
12603.25,257.0020330015348,-9670.615751922613,0,0
12613.2625,255.90398193245946,-9662.034241098454,0,0
12623.275,255.74801641159416,-9652.669323525854,0,0
12633.2875,254.86653574134712,-9643.535008361216,0,0
12643.3,255.36265718378993,-9634.299360314984,0,0
12653.3125,255.56874588146997,-9625.283310915052,0,0
12663.325,256.328569589558,-9616.377717476584,0,0
12673.3375,256.9007412446827,-9607.221836455987,0,0
12683.35,258.4618717447714,-9598.335916552644,0,0
12693.3625,260.0425405769848,-9589.686725163132,0,0
12703.375,261.68320151530014,-9581.871933549653,0,0
12713.3875,263.5932159055966,-9573.714173824239,0,0
12723.4,265.77875544843175,-9566.639397412018,0,0
12733.4125,268.3335099787967,-9559.635462906203,0,0
12743.425,270.54921649397,-9553.285382302744,0,0
12753.4375,272.07336790508475,-9547.83255823749,0,0
12763.45,273.9646849599064,-9542.222352298457,0,0
12773.4625,275.041102305664,-9537.061890978655,0,0
12783.475,276.3376336738947,-9532.446866642289,0,0
12793.4875,276.490299523234,-9527.706902049964,0,0
12803.5,276.50809203775225,-9523.489647495653,0,0
12813.5125,275.79437659841136,-9518.724412751098,0,0
12823.525,274.57617938956326,-9513.73680613027,0,0
12833.5375,273.26340172508145,-9508.811543824811,0,0
12843.55,271.9452275077325,-9503.926374140081,0,0
12853.5625,269.89127567741434,-9498.583081105668,0,0
12863.575,267.9344621906855,-9492.606485234814,0,0
12873.5875,265.9576434543237,-9486.35543895713,0,0
12883.6,264.0137567101054,-9480.555488557064,0,0
12893.6125,262.13408254996943,-9473.813918276022,0,0
12903.625,259.8920851168558,-9466.927345450458,0,0
12913.6375,258.1292041299698,-9459.944862738343,0,0
12923.65,256.10630419558555,-9453.067372064052,0,0
12933.6625,254.40097102376194,-9446.135551849973,0,0
12943.675,252.74118722576415,-9438.686783607325,0,0
12953.6875,251.29522829740355,-9431.478562551658,0,0
12963.7,249.68586722158028,-9423.920209655262,0,0
12973.7125,248.05902128874257,-9416.668841533983,0,0
12983.725,246.59777580701737,-9408.84172633573,0,0
12993.7375,245.08831445780345,-9401.22950454294,0,0
13003.75,244.27594898352032,-9393.441887155712,0,0
13013.7625,243.14887334257855,-9385.997519678502,0,0
13023.775,241.6579094185952,-9378.464033526154,0,0
13033.7875,241.06046734861377,-9370.681812048417,0,0
13043.8,240.11813702028027,-9362.719179169819,0,0
13053.8125,238.82853956397585,-9355.42083499699,0,0
13063.825,238.44664205946373,-9347.505545346694,0,0
13073.8375,237.99854242432062,-9339.521862430634,0,0
13083.85,237.24699204692135,-9331.675729482931,0,0
13093.8625,236.54469345558388,-9324.313108748893,0,0
13103.875,236.21183205342294,-9316.873433728337,0,0
13113.8875,235.69527513763364,-9309.317090075305,0,0
13123.9,235.33272125875237,-9301.76137220522,0,0
13133.9125,235.12867304785547,-9293.998819089704,0,0
13143.925,235.04059526484787,-9286.32787992396,0,0
13153.9375,234.97034499395303,-9278.923453311645,0,0
13163.95,234.68773739241453,-9271.316823490932,0,0
13173.9625,234.72665197211904,-9263.956725766366,0,0
13183.975,234.79266575469612,-9256.580379182446,0,0
13193.9875,234.8189667645733,-9249.225368420644,0,0
13204.0,234.90406543186492,-9242.381026156954,0,0
13214.0125,234.9136233323382,-9235.348870597203,0,0
13224.025,235.31769972502198,-9228.195407532334,0,0
13234.0375,235.9730735247004,-9221.614324045422,0,0
13244.05,235.32909670345427,-9214.629641594767,0,0
13254.0625,235.83174433371906,-9207.848441425103,0,0
13264.075,236.0097317899681,-9201.683155229568,0,0
13274.0875,236.5138091033219,-9195.251220867656,0,0
13284.1,236.00619572447448,-9189.401207419316,0,0
13294.1125,235.93424717670936,-9182.898156063626,0,0
13304.125,235.04429237805928,-9176.858980714704,0,0
13314.1375,234.88236296370263,-9171.152087793696,0,0
13324.15,234.0711029167349,-9164.798897936445,0,0
13334.1625,233.20491712355752,-9159.65727550193,0,0
13344.175,232.62458399201373,-9152.725164924821,0,0
13354.1875,230.72454162600442,-9145.798335809748,0,0
13364.2,229.52747347550084,-9140.090162572851,0,0
13374.2125,228.35471738804117,-9133.623816135696,0,0
13384.225,227.33872324010807,-9126.285962326543,0,0
13394.2375,226.71431516932796,-9118.81659632963,0,0
13404.25,224.6910480062463,-9111.56814658207,0,0
13414.2625,224.3823253820168,-9104.162345416855,0,0
13424.275,222.91292270346827,-9096.708643778982,0,0
13434.2875,222.11114491907378,-9089.424221877069,0,0
13444.3,221.71401933047886,-9081.968858824746,0,0
13454.3125,221.37896301905934,-9074.492353123758,0,0
13464.325,220.70711153010123,-9066.963262369503,0,0
13474.3375,220.10485029336613,-9059.630387948195,0,0
13484.35,219.53070707142604,-9052.561492043787,0,0
13494.3625,219.32037681438624,-9045.357522248089,0,0
13504.375,218.8612337110451,-9037.111861571933,0,0
13514.3875,219.39598199344874,-9029.415245781554,0,0
13524.4,219.888885467088,-9022.825674805572,0,0
13534.4125,220.02015531125392,-9015.459204394861,0,0
13544.425,220.46246752542217,-9007.47079900094,0,0
13554.4375,221.3174415578247,-9001.222605431678,0,0
13564.45,221.28503238228393,-8993.92608316479,0,0
13574.4625,222.85902035845794,-8986.898537578278,0,0
13584.475,223.0492792400304,-8981.04800185407,0,0
13594.4875,224.40610268946,-8974.439033179318,0,0
13604.5,224.36286299575107,-8968.316335609046,0,0
13614.5125,225.55175181815451,-8962.837636561839,0,0
13624.525,225.49721969727736,-8956.933748161084,0,0
13634.5375,225.59936603485656,-8952.03376934612,0,0
13644.55,225.8826346549573,-8946.8053764201,0,0
13654.5625,225.87410159553653,-8940.882217054283,0,0
13664.575,224.3197899008956,-8935.660392318356,0,0
13674.5875,223.59820145574977,-8930.589515693911,0,0
13684.6,222.6285676123712,-8925.11584195674,0,0
13694.6125,221.51073749645485,-8919.223650611577,0,0
13704.625,219.98658385524817,-8912.65804551779,0,0
13714.6375,218.56423929533466,-8906.462707744233,0,0
13724.65,217.37407416874217,-8899.606463466465,0,0
13734.6625,216.01194008279145,-8892.68294730768,0,0
13744.675,215.09803654104485,-8886.03095153808,0,0
