Frequency (Hz),Impedance (ohms),Phase (Radians),Temperature (C),Humidity (%)
10000.0,3781.2881848969855,-3292.0023144534334,0,0
10010.0125,3778.4775004176295,-3291.156929273101,0,0
10020.025,3776.025479759737,-3291.1025963743823,0,0
10030.0375,3773.767553688937,-3291.2567296036314,0,0
10040.05,3771.192210032931,-3290.5213703466434,0,0
10050.0625,3768.6607514233538,-3289.104227287255,0,0
10060.075,3765.873506710647,-3288.4943984434176,0,0
10070.0875,3761.8071487632237,-3286.191586520806,0,0
10080.1,3760.1921476371726,-3285.879131784591,0,0
10090.1125,3757.8424471456556,-3286.050226305569,0,0
10100.125,3755.1042811825996,-3285.5366377549544,0,0
10110.1375,3753.0064618719975,-3286.7498877621783,0,0
10120.15,3750.0196024202214,-3283.608196483667,0,0
10130.1625,3747.266976589862,-3283.3162964795806,0,0
10140.175,3744.3116008391485,-3283.5909082642356,0,0
10150.1875,3743.114748670328,-3284.718362880761,0,0
10160.2,3739.5077226847384,-3284.114283290915,0,0
10170.2125,3736.8910874674834,-3282.494575006676,0,0
10180.225,3734.954382070775,-3284.0231067063887,0,0
10190.2375,3731.903081310885,-3281.6724012576997,0,0
10200.25,3729.4036406286195,-3282.096440543662,0,0
10210.2625,3727.0366734044956,-3281.7723907245736,0,0
10220.275,3722.470880762658,-3271.737221998037,0,0
10230.2875,3719.0144586547763,-3270.1318561820126,0,0
10240.3,3717.3289834615025,-3271.4780611127408,0,0
10250.3125,3714.2759292766,-3268.6835019191976,0,0
10260.325,3711.477437746785,-3268.685417488811,0,0
10270.3375,3708.883373256824,-3266.1965533391035,0,0
10280.35,3706.8697612566807,-3267.9326706666957,0,0
10290.3625,3703.953071991642,-3266.243858488971,0,0
10300.375,3702.296546100352,-3268.344849361653,0,0
10310.3875,3699.237822695291,-3266.8803414547756,0,0
10320.4,3696.4176965973643,-3265.5200402385844,0,0
10330.4125,3694.1675614002183,-3266.6962326225494,0,0
10340.425,3692.495352701846,-3268.1177658038923,0,0
10350.4375,3690.522539372373,-3269.935899113391,0,0
10360.45,3687.74341656401,-3268.9407009215297,0,0
10370.4625,3685.4212512059153,-3269.210325330137,0,0
10380.475,3683.0479736198668,-3268.3956643968527,0,0
10390.4875,3679.963734209087,-3265.1794740013997,0,0
10400.5,3677.0472974561053,-3264.315564788882,0,0
10410.5125,3675.431246549986,-3265.7617981532326,0,0
10420.525,3672.4614681767,-3265.0158094368567,0,0
10430.5375,3670.0855147383913,-3264.870028746813,0,0
10440.55,3667.9446730440754,-3265.8947259162223,0,0
10450.5625,3665.998186200554,-3265.3149190794197,0,0
10460.575,3662.826373113067,-3265.048287177581,0,0
10470.5875,3660.7902354507605,-3264.0889278619343,0,0
10480.6,3657.9695780814777,-3263.88036232838,0,0
10490.6125,3655.5634162377505,-3262.7190744531636,0,0
10500.625,3653.824385761408,-3263.907836461979,0,0
10510.6375,3651.134031117799,-3262.4043822465032,0,0
10520.65,3648.794752969934,-3261.282933318777,0,0
10530.6625,3646.229243632606,-3260.9245998895835,0,0
10540.675,3645.3897839919177,-3267.651104854745,0,0
10550.6875,3641.075751615406,-3260.8531429853633,0,0
10560.7,3639.645525128292,-3261.284680656621,0,0
10570.7125,3635.2858568390643,-3254.4887573401625,0,0
10580.725,3636.7063167251004,-3270.280229220727,0,0
10590.7375,3633.5587831469807,-3269.8688399890084,0,0
10600.75,3631.2173934074312,-3269.781820618886,0,0
10610.7625,3624.0570658997653,-3243.448519875843,0,0
10620.775,3621.342850681341,-3244.118110087651,0,0
10630.7875,3618.767437020562,-3242.733190636953,0,0
10640.8,3615.988472035478,-3241.512669568675,0,0
10650.8125,3614.0765881320626,-3239.127123250944,0,0
10660.825,3610.858597008488,-3238.000517638847,0,0
10670.8375,3608.7558227271024,-3237.6920361796333,0,0
10680.85,3606.8838250681597,-3239.884984370693,0,0
10690.8625,3604.527115865966,-3239.9160355956487,0,0
10700.875,3602.355331630176,-3239.4133491323555,0,0
10710.8875,3600.3297320168626,-3239.8609343184457,0,0
10720.9,3597.5136784199744,-3238.432254742453,0,0
10730.9125,3595.453328139786,-3241.2868596362496,0,0
10740.925,3593.425631416969,-3240.138498228984,0,0
10750.9375,3591.093011579204,-3240.0530990077987,0,0
10760.95,3588.563278703181,-3238.597358045486,0,0
10770.9625,3586.1928575570428,-3238.2678505482295,0,0
10780.975,3583.5613624202133,-3237.5763781645323,0,0
10790.9875,3581.3475667692337,-3236.557742406244,0,0
10801.0,3578.71423494557,-3234.362626028327,0,0
10811.0125,3576.078524672709,-3233.803376526182,0,0
10821.025,3573.8588466940323,-3235.074248585321,0,0
10831.0375,3571.5199459556966,-3234.6587416691864,0,0
10841.05,3569.3580739324675,-3233.56737640213,0,0
10851.0625,3567.147290962462,-3235.13206561154,0,0
10861.075,3564.340799433298,-3233.5781541285937,0,0
10871.0875,3562.104157323786,-3231.8778975498185,0,0
10881.1,3559.5843938488347,-3230.7354739060215,0,0
10891.1125,3557.7476436255206,-3231.0802057891433,0,0
10901.125,3555.979719007193,-3232.1216490932125,0,0
10911.1375,3553.650364889499,-3232.2077543845576,0,0
10921.15,3550.5190042166137,-3230.9078538139483,0,0
10931.1625,3548.6715289672306,-3231.387635175574,0,0
10941.175,3546.3376878176077,-3230.4190720972456,0,0
10951.1875,3543.849407322943,-3230.0348957429414,0,0
10961.2,3541.8965734152594,-3229.7529013270123,0,0
10971.2125,3539.4923976195983,-3228.3291155724164,0,0
10981.225,3536.7937497563253,-3228.3740089705007,0,0
10991.2375,3534.5944487058387,-3227.0294321055003,0,0
11001.25,3531.7879076703343,-3224.52508120495,0,0
11011.2625,3529.734564935326,-3225.352982884351,0,0
11021.275,3528.0803184582815,-3225.410021712145,0,0
11031.2875,3525.557528484265,-3226.1543866759125,0,0
11041.3,3523.152387337695,-3225.4713102844603,0,0
11051.3125,3521.0380821483504,-3224.7856242928037,0,0
11061.325,3519.446381237435,-3225.1213848121633,0,0
11071.3375,3516.1878411596167,-3224.5152010932343,0,0
11081.35,3514.785453990263,-3225.746156982314,0,0
11091.3625,3512.7044720053773,-3224.2273590947257,0,0
11101.375,3510.018245844697,-3224.875528563446,0,0
11111.3875,3507.5602107146997,-3222.0691380187077,0,0
11121.4,3504.649569512378,-3221.9895060996596,0,0
11131.4125,3502.4667112558873,-3220.834753438092,0,0
11141.425,3500.177502589898,-3220.527700245016,0,0
11151.4375,3498.1968582886448,-3218.6733628175516,0,0
11161.45,3495.8654976031094,-3218.1241517138483,0,0
11171.4625,3492.876409167516,-3216.6701088244245,0,0
11181.475,3490.6424107647736,-3215.4838542905195,0,0
11191.4875,3488.887575340144,-3217.000623103115,0,0
11201.5,3486.5990726835344,-3216.285938780435,0,0
11211.5125,3483.8905741033664,-3215.9138118871842,0,0
11221.525,3482.4786463696355,-3218.1517905142837,0,0
11231.5375,3480.3064024773425,-3217.5878217508525,0,0
11241.55,3477.976535679241,-3216.3176286756916,0,0
11251.5625,3475.874458203771,-3216.8344440817186,0,0
11261.575,3473.924949128139,-3215.959396508217,0,0
11271.5875,3471.0054818872504,-3213.4557723662147,0,0
11281.6,3469.0942444282364,-3213.5061445568535,0,0
11291.6125,3466.5601583379785,-3212.1681017615947,0,0
11301.625,3464.1878512827216,-3212.0389865187803,0,0
11311.6375,3461.8317433006773,-3212.2009425439587,0,0
11321.65,3460.3696910453104,-3212.3430676980356,0,0
11331.6625,3457.481089084978,-3211.243062561045,0,0
11341.675,3455.5227999411886,-3211.1382663567165,0,0
11351.6875,3453.5193323691155,-3211.4312608822784,0,0
11361.7,3450.7044060444764,-3209.2911880001952,0,0
11371.7125,3449.0452383338197,-3210.984700758931,0,0
11381.725,3446.81831888217,-3210.7977359749984,0,0
11391.7375,3444.6181103169947,-3210.829166244441,0,0
11401.75,3442.715820922545,-3211.091824689255,0,0
11411.7625,3440.6065892167435,-3210.0440149888213,0,0
11421.775,3438.2009268311135,-3209.431521436582,0,0
11431.7875,3436.0982095704812,-3209.5387472755665,0,0
11441.8,3433.679476743942,-3208.2144062573047,0,0
11451.8125,3430.008634438597,-3198.347481084756,0,0
11461.825,3425.818257140477,-3189.3175888438736,0,0
11471.8375,3422.9724545861436,-3187.0367733030885,0,0
11481.85,3422.130784653956,-3189.3840558546735,0,0
11491.8625,3419.986858803532,-3189.575198102386,0,0
11501.875,3417.1000091965757,-3186.9043240904657,0,0
11511.8875,3414.7561251746797,-3187.3227701604515,0,0
11521.9,3412.6540592226747,-3186.535248419082,0,0
11531.9125,3411.1042501892975,-3186.0603434987975,0,0
11541.925,3408.447637707341,-3185.0928742853903,0,0
11551.9375,3406.222066607788,-3186.659535527394,0,0
11561.95,3404.2275093465296,-3185.7671583470405,0,0
11571.9625,3402.167503599327,-3185.8023514453535,0,0
11581.975,3399.935202382609,-3183.5502675088214,0,0
11591.9875,3398.2304837174206,-3185.3921328468136,0,0
11602.0,3395.669918781022,-3183.668985181235,0,0
11612.0125,3392.9170352827778,-3181.2766215232627,0,0
11622.025,3390.1760075964066,-3179.094858474795,0,0
11632.0375,3388.9646198456953,-3181.6795199665808,0,0
11642.05,3386.170459274314,-3178.25641792987,0,0
11652.0625,3383.811805771585,-3176.606188736629,0,0
11662.075,3381.590434021906,-3176.6273340408075,0,0
11672.0875,3379.8483159659218,-3176.7592503497976,0,0
11682.1,3377.774908351581,-3178.3609086717647,0,0
11692.1125,3375.9068142445426,-3177.0615918540916,0,0
11702.125,3373.556336144184,-3176.138946353546,0,0
11712.1375,3371.18732287185,-3174.7115658842267,0,0
11722.15,3369.5752891198285,-3175.089917101427,0,0
11732.1625,3367.7848807419355,-3176.8946589625857,0,0
11742.175,3365.302781076578,-3173.7199329557484,0,0
11752.1875,3363.048478184733,-3176.1022611205576,0,0
11762.2,3361.484809075738,-3176.901767472836,0,0
11772.2125,3359.3269647295606,-3177.2763981446665,0,0
11782.225,3357.8864394125753,-3177.800714442092,0,0
11792.2375,3355.7571256687065,-3176.9190959848756,0,0
11802.25,3353.6465179044726,-3176.648250330562,0,0
11812.2625,3351.2744486092465,-3175.694103204559,0,0
11822.275,3348.9733314636746,-3174.724636401908,0,0
11832.2875,3346.5595534684226,-3173.661189758576,0,0
11842.3,3344.987570978201,-3175.0235438846535,0,0
11852.3125,3343.2312183792405,-3176.7844775389144,0,0
11862.325,3341.1622645859165,-3174.9389553118813,0,0
11872.3375,3338.7513228343823,-3174.1006286873458,0,0
11882.35,3336.260973250908,-3172.3782042614284,0,0
11892.3625,3334.789035740109,-3172.7528017266163,0,0
11902.375,3332.4376126687325,-3171.7599377476577,0,0
11912.3875,3329.9434761180164,-3171.7223123630392,0,0
11922.4,3328.1265122361287,-3169.7277769055454,0,0
11932.4125,3326.169240872319,-3170.0702825306566,0,0
11942.425,3324.0502131022627,-3169.4068349920913,0,0
11952.4375,3322.5082926476207,-3170.2400350662874,0,0
11962.45,3320.7165003836735,-3171.2972059296903,0,0
11972.4625,3317.9340374639382,-3170.324869546743,0,0
11982.475,3315.850060244833,-3169.1944936485556,0,0
11992.4875,3313.8138536499373,-3167.4432620053876,0,0
12002.5,3312.0798980889185,-3169.0833691046955,0,0
12012.5125,3309.6594782467882,-3167.1805720194675,0,0
12022.525,3307.146666368745,-3165.7117849256942,0,0
12032.5375,3305.3781996573007,-3165.8506555712174,0,0
12042.55,3303.064667413148,-3166.1272748797587,0,0
12052.5625,3302.024506261107,-3166.8482559236245,0,0
12062.575,3299.5555606909943,-3165.950612455407,0,0
12072.5875,3297.010755620955,-3164.5904292923124,0,0
12082.6,3295.222929178121,-3163.8226588112734,0,0
12092.6125,3292.8431380861034,-3163.282640521628,0,0
12102.625,3290.814562258495,-3161.9165068015313,0,0
12112.6375,3289.8454783574107,-3169.174850848519,0,0
12122.65,3287.034903378443,-3162.7680575479326,0,0
12132.6625,3285.202781509268,-3162.095163401086,0,0
12142.675,3282.900499931122,-3160.581183990804,0,0
12152.6875,3281.2568835127154,-3162.23932287663,0,0
12162.7,3278.9983671044433,-3161.8925337612336,0,0
12172.7125,3276.5343233600947,-3159.859825492328,0,0
12182.725,3274.8104522610265,-3160.1793489317133,0,0
12192.7375,3272.7770385930094,-3158.564105395389,0,0
12202.75,3270.1820537986323,-3158.055061887975,0,0
12212.7625,3268.0768052329145,-3156.786026000756,0,0
12222.775,3266.702287061448,-3158.08393017885,0,0
12232.7875,3264.748649401408,-3157.2339438243034,0,0
12242.8,3262.433399526534,-3156.161492530732,0,0
12252.8125,3260.754090394703,-3156.1109065541227,0,0
12262.825,3258.473010070955,-3156.5505122100767,0,0
12272.8375,3256.715163164154,-3155.9462845494145,0,0
12282.85,3254.152383622672,-3152.7777626291963,0,0
12292.8625,3252.1812166074824,-3153.604076747179,0,0
12302.875,3249.97633902218,-3147.7536628769753,0,0
12312.8875,3247.5681907085773,-3146.656135767116,0,0
12322.9,3246.122887670642,-3150.457143818266,0,0
12332.9125,3243.7286742450565,-3148.57361078372,0,0
12342.925,3242.4955391553617,-3153.344196030278,0,0
12352.9375,3240.4732727763976,-3151.7268417960254,0,0
12362.95,3238.52297439615,-3150.2583984201037,0,0
12372.9625,3236.6509393937777,-3150.615371940021,0,0
12382.975,3234.0444709569074,-3148.5968224713465,0,0
12392.9875,3232.2526208733243,-3147.1415650477793,0,0
12403.0,3231.0477956328327,-3152.206702730032,0,0
12413.0125,3228.967632363581,-3152.9316638747982,0,0
12423.025,3227.0910607835244,-3150.870363880846,0,0
12433.0375,3227.050257942892,-3162.7529009424725,0,0
12443.05,3225.3683062644923,-3164.291513225122,0,0
12453.0625,3220.5828712913703,-3147.0943118079363,0,0
12463.075,3219.043184965922,-3147.3236291921876,0,0
12473.0875,3216.541842807993,-3147.782660266849,0,0
12483.1,3214.5610818536684,-3144.085532287196,0,0
12493.1125,3212.5074675153132,-3143.776193345464,0,0
12503.125,3211.122976664299,-3144.9425216269046,0,0
12513.1375,3208.6678062384644,-3143.7172502360654,0,0
12523.15,3206.580337353221,-3143.310339769858,0,0
12533.1625,3204.615088875107,-3141.8740871629197,0,0
12543.175,3202.903734216044,-3140.9585135815696,0,0
12553.1875,3200.867871263997,-3141.97443369896,0,0
12563.2,3199.4049057345296,-3142.8421406573934,0,0
12573.2125,3197.545649615942,-3142.4473501645653,0,0
12583.225,3195.734857537934,-3145.456463607498,0,0
12593.2375,3193.9073053405914,-3144.3624199566416,0,0
12603.25,3192.0816141912856,-3143.430947464552,0,0
12613.2625,3189.762774173438,-3142.6457782024454,0,0
12623.275,3188.3598988456506,-3143.9384955164446,0,0
12633.2875,3186.029521189165,-3142.1681760204833,0,0
12643.3,3184.3199626943365,-3142.358442760126,0,0
12653.3125,3182.7444549541465,-3141.882592901386,0,0
12663.325,3180.698718633284,-3142.8809828461444,0,0
12673.3375,3178.7338065489284,-3143.732092721259,0,0
12683.35,3176.547300263464,-3140.8882888552794,0,0
12693.3625,3174.2798647658183,-3140.3143670772583,0,0
12703.375,3172.23175865947,-3137.0590221028087,0,0
12713.3875,3170.2864126297172,-3135.580139857832,0,0
12723.4,3168.153526548314,-3136.8286252960784,0,0
12733.4125,3166.735889619101,-3134.4931643319946,0,0
12743.425,3164.3455046743734,-3135.3204184539686,0,0
12753.4375,3162.918225765944,-3135.3078076938345,0,0
12763.45,3160.7101838128124,-3132.617601805765,0,0
12773.4625,3159.090138546586,-3133.791502774181,0,0
12783.475,3156.3113072945816,-3130.3387235139558,0,0
12793.4875,3154.548291014075,-3130.3594883911364,0,0
12803.5,3152.6647150584427,-3130.2487360289183,0,0
12813.5125,3151.073880561402,-3130.0881251460737,0,0
12823.525,3149.194867245576,-3131.137174666543,0,0
12833.5375,3147.108949145573,-3131.0785502739677,0,0
12843.55,3145.654316499528,-3131.3195128772063,0,0
12853.5625,3143.471288388287,-3129.934669501961,0,0
12863.575,3141.6660127609057,-3129.155280387048,0,0
12873.5875,3139.6897728258473,-3128.677114949499,0,0
12883.6,3137.5027532426307,-3127.4384558355573,0,0
12893.6125,3135.5512464437747,-3126.550546679097,0,0
12903.625,3133.9500433661638,-3126.968940000067,0,0
12913.6375,3132.300801453297,-3127.350071335203,0,0
12923.65,3130.170632908445,-3125.7252457984755,0,0
12933.6625,3128.1998367616316,-3124.9576622829827,0,0
12943.675,3126.3763696843357,-3123.9482549130016,0,0
12953.6875,3123.933593775223,-3123.58223264374,0,0
12963.7,3122.7782025458655,-3124.1963126975766,0,0
12973.7125,3120.580227954727,-3124.2209148142533,0,0
12983.725,3119.3361138853907,-3123.427659367296,0,0
12993.7375,3116.8626210408847,-3122.343833219131,0,0
13003.75,3115.066221015121,-3122.965386801923,0,0
13013.7625,3113.50517852326,-3122.2032990934467,0,0
13023.775,3111.531505085298,-3119.207334191361,0,0
13033.7875,3109.3599806787056,-3120.7978282464915,0,0
13043.8,3107.4918542662676,-3120.096315234481,0,0
13053.8125,3105.2327434300855,-3119.48341888249,0,0
13063.825,3104.0898667533033,-3118.6306174277597,0,0
13073.8375,3101.939986350671,-3117.029049153391,0,0
13083.85,3099.978038003177,-3115.7870163683733,0,0
13093.8625,3098.2730977943897,-3117.529604525451,0,0
13103.875,3095.9622791332417,-3114.653170932273,0,0
13113.8875,3094.3127579633115,-3116.0426883532186,0,0
13123.9,3092.9484669665535,-3116.0221638547782,0,0
13133.9125,3090.933917048909,-3115.834738827629,0,0
13143.925,3088.8812100648925,-3115.2047556290177,0,0
13153.9375,3086.971345661253,-3115.3364609066775,0,0
13163.95,3085.3205696251366,-3113.9784223272004,0,0
13173.9625,3083.8514415089835,-3114.013688397039,0,0
13183.975,3081.8119300251933,-3116.1134811860497,0,0
13193.9875,3080.2528050196397,-3116.0389896576758,0,0
13204.0,3078.2056424424995,-3115.743474887741,0,0
13214.0125,3076.804867989578,-3115.3393853860143,0,0
13224.025,3074.6420486569723,-3115.6509652763903,0,0
13234.0375,3072.754091804049,-3115.9119491946194,0,0
13244.05,3071.2272113080635,-3114.409848093881,0,0
13254.0625,3069.7891756261047,-3114.3035706176433,0,0
13264.075,3067.1400958005765,-3113.6302820179912,0,0
13274.0875,3065.2884620094956,-3111.6977685710062,0,0
13284.1,3063.6236584598623,-3112.8572843309726,0,0
13294.1125,3062.454508407534,-3113.0395591995434,0,0
13304.125,3059.927007844487,-3111.3392091833744,0,0
13314.1375,3058.187972963067,-3109.793129736953,0,0
13324.15,3056.3158150008962,-3110.472729181213,0,0
13334.1625,3054.6955087018614,-3109.7057347442624,0,0
13344.175,3052.812507936382,-3107.3535851807455,0,0
13354.1875,3050.65653021945,-3105.839586897548,0,0
13364.2,3049.070006531131,-3106.489844750496,0,0
13374.2125,3047.0748487141514,-3105.688541880195,0,0
13384.225,3045.4111423580034,-3105.7471118264593,0,0
13394.2375,3043.4423950607834,-3105.8916673653666,0,0
13404.25,3042.0730713820412,-3106.3591756348287,0,0
13414.2625,3040.021655650289,-3105.6050746513424,0,0
13424.275,3038.5357609817524,-3105.453712184584,0,0
13434.2875,3036.141099894831,-3103.3928602501355,0,0
13444.3,3034.7772882494046,-3103.6464551879467,0,0
13454.3125,3032.8889809889065,-3103.072720241124,0,0
13464.325,3031.038835965717,-3102.3760210636283,0,0
13474.3375,3029.220120631269,-3103.64726008221,0,0
13484.35,3027.4839238627837,-3101.1121366182515,0,0
13494.3625,3025.448852267837,-3099.66828945255,0,0
13504.375,3023.872095668487,-3101.3991342249133,0,0
13514.3875,3022.140849928269,-3101.0026654537264,0,0
13524.4,3020.648228683413,-3099.785631226472,0,0
13534.4125,3018.757422411924,-3099.617385952442,0,0
13544.425,3016.912381049426,-3101.0393751666566,0,0
13554.4375,3015.051562361935,-3100.001443533996,0,0
13564.45,3013.261798179055,-3100.015467562471,0,0
13574.4625,3011.3843741315927,-3101.354432555285,0,0
13584.475,3009.7778559350727,-3101.1225578146186,0,0
13594.4875,3008.4574651207568,-3098.8722838717367,0,0
13604.5,3006.3142745903488,-3099.8532715517767,0,0
13614.5125,3004.5571507740706,-3099.1564800806514,0,0
13624.525,3002.791343486405,-3098.515197613223,0,0
13634.5375,3000.8155546397475,-3097.43066722644,0,0
13644.55,2998.8755647629373,-3096.967081184437,0,0
13654.5625,2997.053417771432,-3095.555001763968,0,0
13664.575,2995.456864749975,-3094.569315203843,0,0
13674.5875,2993.8254787969,-3095.6914241977747,0,0
13684.6,2992.2179222854706,-3096.3785449955612,0,0
13694.6125,2990.2761318711478,-3094.939915847386,0,0
13704.625,2988.7102374797205,-3093.9462593813564,0,0
13714.6375,2986.7451495766204,-3094.2207164875235,0,0
13724.65,2985.479141410298,-3096.059869896481,0,0
13734.6625,2983.4967939272206,-3094.2300428430617,0,0
