Frequency (Hz),Impedance (ohms),Phase (Radians),Temperature (C),Humidity (%)
10000.0,272.6955804431746,-12103.817559771738,0,0
10010.0125,272.8300979317786,-12091.376004789916,0,0
10020.025,272.10782333520905,-12079.048502095715,0,0
10030.0375,272.2622285837114,-12066.002848854072,0,0
10040.05,271.7243435602117,-12053.526223884468,0,0
10050.0625,271.714714552771,-12040.945588306628,0,0
10060.075,271.6996749263203,-12028.466907516575,0,0
10070.0875,272.5643706648936,-12016.243482127094,0,0
10080.1,272.3751514593224,-12003.162610138625,0,0
10090.1125,273.0751201494224,-11990.618853065565,0,0
10100.125,274.4689374032796,-11977.685551215884,0,0
10110.1375,275.15317994491835,-11966.054280978477,0,0
10120.15,276.0749535385151,-11953.393038992372,0,0
10130.1625,278.1912067234508,-11941.08586389946,0,0
10140.175,280.1518791649457,-11929.710480682532,0,0
10150.1875,282.036322692151,-11918.623503966575,0,0
10160.2,284.5434476572054,-11908.461156360205,0,0
10170.2125,286.1763070369502,-11899.221821580762,0,0
10180.225,288.11250122713955,-11890.81364706646,0,0
10190.2375,288.0594510781191,-11882.474344292956,0,0
10200.25,287.4896622260395,-11874.962875984069,0,0
10210.2625,285.70313223549374,-11867.046527872666,0,0
10220.275,282.2646407899143,-11858.061945803858,0,0
10230.2875,279.10727509173716,-11847.884053798203,0,0
10240.3,275.99855390359556,-11836.73374443334,0,0
10250.3125,273.15058570814983,-11824.67176081654,0,0
10260.325,271.58192982392006,-11813.058399569873,0,0
10270.3375,269.8794248826824,-11800.713421884626,0,0
10280.35,268.81404675007076,-11788.54660165273,0,0
10290.3625,267.52268438743226,-11776.70536100213,0,0
10300.375,266.6324072508213,-11764.914955911174,0,0
10310.3875,265.94749852254455,-11752.6645162606,0,0
10320.4,264.94558220554507,-11741.639589959246,0,0
10330.4125,264.322679600551,-11728.898809070892,0,0
10340.425,263.7759241875015,-11717.411482592272,0,0
10350.4375,263.0050818921344,-11705.861988718074,0,0
10360.45,262.89702355499173,-11694.037548666549,0,0
10370.4625,262.0656306065297,-11682.386806397835,0,0
10380.475,261.9637848417109,-11670.902049574615,0,0
10390.4875,261.2526705015769,-11659.340314506135,0,0
10400.5,260.9381838072298,-11647.61212556838,0,0
10410.5125,260.59680603814144,-11636.133944593385,0,0
10420.525,260.20808929048536,-11625.27253936418,0,0
10430.5375,260.11743600647304,-11613.495984567111,0,0
10440.55,259.23755011658534,-11601.78483213905,0,0
10450.5625,259.2274927832455,-11590.658621503997,0,0
10460.575,258.9050249725678,-11579.429035907246,0,0
10470.5875,258.76208899833216,-11568.319681567657,0,0
10480.6,258.1448724015205,-11556.9987417362,0,0
10490.6125,257.96489575969,-11545.688719852735,0,0
10500.625,257.92335241622834,-11534.60780710626,0,0
10510.6375,257.570562458948,-11523.403607457278,0,0
10520.65,257.4344718386912,-11512.113874832672,0,0
10530.6625,256.60515723366734,-11501.188588904794,0,0
10540.675,256.6226079129304,-11490.19345510653,0,0
10550.6875,256.29447548040775,-11478.892234335337,0,0
10560.7,256.56462060425014,-11467.788091176539,0,0
10570.7125,255.98759062967528,-11456.855560687294,0,0
10580.725,255.8564608116835,-11445.823513830654,0,0
10590.7375,255.72436866967172,-11435.052957456419,0,0
10600.75,255.5493584295146,-11424.384428499347,0,0
10610.7625,255.1795251047908,-11413.121693872783,0,0
10620.775,254.68141643161556,-11402.252968955068,0,0
10630.7875,254.6482976385993,-11391.24062624482,0,0
10640.8,254.65131670678394,-11380.208165292064,0,0
10650.8125,254.13243747601143,-11369.73751098721,0,0
10660.825,253.88151355600667,-11358.973960839976,0,0
10670.8375,253.9635600153664,-11348.27301196176,0,0
10680.85,253.66820351874168,-11337.53895924268,0,0
10690.8625,253.55413321159176,-11326.627452589923,0,0
10700.875,253.53686132745338,-11315.831761732738,0,0
10710.8875,253.104249727167,-11305.039339664763,0,0
10720.9,252.8893486618065,-11294.417518113129,0,0
10730.9125,252.87418913972482,-11283.78954631605,0,0
10740.925,252.38162681720763,-11273.262903599229,0,0
10750.9375,252.39996757740442,-11262.54008273602,0,0
10760.95,252.30085443934612,-11251.790315698312,0,0
10770.9625,251.74945097934125,-11241.175742089632,0,0
10780.975,251.75240685703727,-11230.756893708223,0,0
10790.9875,251.5101248582553,-11220.418742259286,0,0
10801.0,251.28417882218866,-11209.474133994525,0,0
10811.0125,251.4937011376854,-11198.958116288659,0,0
10821.025,250.82333867984858,-11188.500972734466,0,0
10831.0375,250.73650224570832,-11177.916393963624,0,0
10841.05,250.654130212397,-11167.6893398688,0,0
10851.0625,250.88285260004324,-11157.240349649095,0,0
10861.075,250.54918358063875,-11146.562897856797,0,0
10871.0875,250.4222719371723,-11135.945587911727,0,0
10881.1,250.54341947122026,-11125.688420800008,0,0
10891.1125,250.27938524724993,-11115.100990902418,0,0
10901.125,250.59300231355,-11105.13788858863,0,0
10911.1375,250.04026220494504,-11094.768546691603,0,0
10921.15,250.3797020413475,-11084.445764099273,0,0
10931.1625,249.90138005458866,-11074.447018976238,0,0
10941.175,250.0437764084555,-11063.937602651444,0,0
10951.1875,249.83546414116898,-11053.496841731792,0,0
10961.2,249.79315780052642,-11043.851226284962,0,0
10971.2125,249.4355206642334,-11033.447953955343,0,0
10981.225,249.7435591005408,-11023.194519133247,0,0
10991.2375,249.40369022075203,-11013.160434316434,0,0
11001.25,249.51424626222476,-11002.99943873937,0,0
11011.2625,249.53567405324029,-10992.747727406891,0,0
11021.275,249.2924241885409,-10982.86696511586,0,0
11031.2875,249.31023637121672,-10972.851605545264,0,0
11041.3,249.10160476629557,-10963.016126572886,0,0
11051.3125,249.14357269366883,-10953.11105670841,0,0
11061.325,249.06547637521774,-10942.929492714014,0,0
11071.3375,248.837800053316,-10932.955657812709,0,0
11081.35,248.86454155191097,-10922.721447435473,0,0
11091.3625,248.59300639204943,-10912.873421983373,0,0
11101.375,248.44646495005162,-10902.994873874217,0,0
11111.3875,248.0058680403361,-10893.145846248479,0,0
11121.4,248.3999422575551,-10883.449360369741,0,0
11131.4125,248.07166496371596,-10873.345707260536,0,0
11141.425,248.06780990320797,-10863.55296589463,0,0
11151.4375,247.34805297106496,-10853.264377943879,0,0
11161.45,247.08956890230482,-10843.421767975355,0,0
11171.4625,247.5130428731539,-10833.735119180888,0,0
11181.475,247.32633409067498,-10824.091735203834,0,0
11191.4875,247.17704796949212,-10814.257313555054,0,0
11201.5,246.91060168316562,-10804.393074071231,0,0
11211.5125,246.75261396245227,-10794.57485528258,0,0
11221.525,246.86868152915972,-10784.642124504058,0,0
11231.5375,246.53080433825718,-10775.013470743415,0,0
11241.55,246.7063507909607,-10765.169837546726,0,0
11251.5625,246.56154039658722,-10755.201069172957,0,0
11261.575,246.28696662510995,-10745.484321153666,0,0
11271.5875,246.47628262487004,-10735.662783625836,0,0
11281.6,246.23040964750803,-10725.918820677054,0,0
11291.6125,246.0344239297264,-10716.651779752876,0,0
11301.625,245.7066815674622,-10706.599261595687,0,0
11311.6375,246.17578078845352,-10696.857508957713,0,0
11321.65,246.02099032246494,-10687.336951338077,0,0
11331.6625,245.53098871897038,-10677.222252885153,0,0
11341.675,246.01964947682686,-10667.9588447325,0,0
11351.6875,245.90652642812677,-10658.07317672706,0,0
11361.7,245.9515999745255,-10648.43196051016,0,0
11371.7125,245.71932917997657,-10638.624830830322,0,0
11381.725,246.1809421480017,-10629.114502025557,0,0
11391.7375,246.14009522279912,-10619.395758468323,0,0
11401.75,245.82690746369954,-10608.768256973535,0,0
11411.7625,245.73491972141682,-10600.273631521142,0,0
11421.775,245.87591836662057,-10590.9807283992,0,0
11431.7875,246.36202816021844,-10581.175963698077,0,0
11441.8,246.0653431315699,-10571.148617260227,0,0
11451.8125,246.24436583711886,-10562.108845256313,0,0
11461.825,245.9977946610178,-10552.131841962298,0,0
11471.8375,246.41287733659863,-10542.938135147384,0,0
11481.85,246.5357287583194,-10533.318601943818,0,0
11491.8625,246.4988422004977,-10523.854119994803,0,0
11501.875,246.88759430015492,-10514.535505208827,0,0
11511.8875,247.2753741740701,-10504.57514842624,0,0
11521.9,246.86720688916407,-10494.922097282139,0,0
11531.9125,247.52097944487014,-10485.345542338642,0,0
11541.925,247.8787705423342,-10475.940631842408,0,0
11551.9375,247.99917082648432,-10466.946727236696,0,0
11561.95,248.14338194975514,-10457.329848136507,0,0
11571.9625,248.5774779718445,-10447.68106284345,0,0
11581.975,249.35020180361903,-10438.589363516927,0,0
11591.9875,249.58159582481787,-10429.31866192342,0,0
11602.0,249.75598639109657,-10419.275473788566,0,0
11612.0125,250.48854615819442,-10410.585739848935,0,0
11622.025,250.5051798403457,-10400.89091398735,0,0
11632.0375,251.87431005762994,-10391.700473076691,0,0
11642.05,251.91547800034266,-10382.416602301875,0,0
11652.0625,253.00637798441917,-10373.639134223926,0,0
11662.075,253.51151974757144,-10363.77372717204,0,0
11672.0875,253.98131227730465,-10355.28811580249,0,0
11682.1,255.3842127135989,-10346.390040804972,0,0
11692.1125,255.83881411073978,-10337.675807578396,0,0
11702.125,256.72662473187256,-10328.85211895168,0,0
11712.1375,257.4722858366559,-10320.051059815854,0,0
11722.15,257.6717368935107,-10311.959323551098,0,0
11732.1625,258.5854082725849,-10303.691989354034,0,0
11742.175,259.01457549765615,-10295.387373726177,0,0
11752.1875,259.383555529239,-10286.805644733417,0,0
11762.2,259.2893195243687,-10278.665484694588,0,0
11772.2125,259.33874818837205,-10270.411802499813,0,0
11782.225,259.0023781565451,-10261.682786503297,0,0
11792.2375,258.89690797971537,-10253.184483112009,0,0
11802.25,258.62325402518826,-10244.340927836338,0,0
11812.2625,258.63559964057066,-10235.471077493998,0,0
11822.275,258.6468874629976,-10226.359535034197,0,0
11832.2875,258.90203282229805,-10217.111345106616,0,0
11842.3,259.2256613398988,-10207.932293291913,0,0
11852.3125,260.1802595779989,-10198.788851203837,0,0
11862.325,260.4690595572661,-10190.08919458144,0,0
11872.3375,261.0058855467038,-10180.713815946783,0,0
11882.35,262.0761359305214,-10171.317118442978,0,0
11892.3625,263.5279733741814,-10163.112159054492,0,0
11902.375,264.28974924238975,-10154.097213848985,0,0
11912.3875,265.8706764266232,-10145.247973270261,0,0
11922.4,267.229042021385,-10137.182387699018,0,0
11932.4125,268.49927814899814,-10128.73199314216,0,0
11942.425,269.82600868736193,-10121.596405710554,0,0
11952.4375,270.913912414112,-10113.374288212368,0,0
11962.45,272.15262977573127,-10106.339340997447,0,0
11972.4625,273.51245847473643,-10098.865009790794,0,0
11982.475,273.4727551502185,-10092.025954263014,0,0
11992.4875,274.1185313365687,-10085.133290547601,0,0
12002.5,273.72424187294286,-10078.2728408638,0,0
12012.5125,272.9504164824382,-10071.380966026365,0,0
12022.525,272.3210266367795,-10064.154293137466,0,0
12032.5375,271.15040710817203,-10056.298235867593,0,0
12042.55,270.03715949170214,-10048.405092442124,0,0
12052.5625,268.8632482322815,-10039.601920095922,0,0
12062.575,267.96955516426596,-10030.444900062028,0,0
12072.5875,267.2046919568154,-10020.952565357506,0,0
12082.6,266.89992420394543,-10011.173376361974,0,0
12092.6125,267.00039367919493,-10001.653432341322,0,0
12102.625,267.1122630664226,-9991.699849340059,0,0
12112.6375,267.8969433474196,-9982.125708516334,0,0
12122.65,269.0729771270772,-9972.216249922158,0,0
12132.6625,270.9324012962206,-9962.805564226777,0,0
12142.675,272.1859233782987,-9953.640450152534,0,0
12152.6875,274.05966805786596,-9943.969803788606,0,0
12162.7,276.50534062457433,-9934.824876462635,0,0
12172.7125,278.8238146756575,-9926.28448066707,0,0
12182.725,281.23648026056964,-9917.47892347344,0,0
12192.7375,283.97442727605,-9909.154155354743,0,0
12202.75,286.784479983641,-9901.221236653486,0,0
12212.7625,290.014397735328,-9893.15002818125,0,0
12222.775,293.3682493700487,-9885.19132925429,0,0
12232.7875,296.9246002918234,-9878.235881918368,0,0
12242.8,300.381366063148,-9872.038059007491,0,0
12252.8125,303.3019006589765,-9865.796759442042,0,0
12262.825,306.4970670018648,-9859.681027538401,0,0
12272.8375,310.4406249995107,-9854.201016993962,0,0
12282.85,313.2947407020785,-9849.766628466032,0,0
12292.8625,316.3573102315059,-9844.87780354812,0,0
12302.875,319.12713528018065,-9841.475031316622,0,0
12312.8875,320.8138932282216,-9837.993250979018,0,0
12322.9,323.00461261409424,-9835.324573250218,0,0
12332.9125,324.02655218888214,-9832.022147198675,0,0
12342.925,324.8286368608319,-9830.037716494955,0,0
12352.9375,324.4988486312416,-9827.622114302092,0,0
12362.95,323.05698230901254,-9825.244350508063,0,0
12372.9625,321.42101914337195,-9823.364476836918,0,0
12382.975,319.16192831931255,-9820.4308114859,0,0
12392.9875,315.6268286870023,-9817.197905616937,0,0
12403.0,311.8292906934087,-9813.293665891868,0,0
12413.0125,307.83487403469815,-9809.167439367931,0,0
12423.025,303.4690026938104,-9804.227617859186,0,0
12433.0375,299.2488390658635,-9798.129328451152,0,0
12443.05,295.10561251038905,-9791.598411444158,0,0
12453.0625,291.0783104965126,-9784.007767523804,0,0
12463.075,287.4458987082986,-9776.669316488202,0,0
12473.0875,283.71526103574575,-9768.480004118888,0,0
12483.1,280.551932207915,-9760.424853039278,0,0
12493.1125,278.23209329747914,-9751.9767836615,0,0
12503.125,275.6820397833049,-9743.97640911017,0,0
12513.1375,273.69202811801296,-9735.548177090814,0,0
12523.15,271.86606431721555,-9727.2805397068,0,0
12533.1625,270.3916152083951,-9718.802350567861,0,0
12543.175,269.1570105745869,-9710.942363239494,0,0
12553.1875,267.765337144386,-9702.894189915025,0,0
12563.2,265.5464048825718,-9695.384734314395,0,0
12573.2125,264.6478656205673,-9687.140840017337,0,0
12583.225,262.88576126553784,-9679.27288880911,0,0
12593.2375,261.2757655820376,-9671.47472392669,0,0
12603.25,259.79157160483254,-9663.593349643357,0,0
12613.2625,257.8977614260835,-9655.240186487037,0,0
12623.275,256.63428686179424,-9646.870160421004,0,0
12633.2875,254.74322930760994,-9638.421031590251,0,0
12643.3,253.51300080100341,-9629.966794050937,0,0
12653.3125,252.14171455068882,-9621.491629181168,0,0
12663.325,250.6724616085547,-9612.115274769016,0,0
12673.3375,250.13537263832944,-9603.553340876477,0,0
12683.35,248.95535461859305,-9594.20347522569,0,0
12693.3625,248.20650669033884,-9584.808364553728,0,0
12703.375,247.62197820571146,-9575.810359380434,0,0
12713.3875,247.737364041135,-9566.816260391866,0,0
12723.4,247.7562714986217,-9557.593970287478,0,0
12733.4125,248.12273897709755,-9548.297756984011,0,0
12743.425,248.71241344023358,-9539.304961348551,0,0
12753.4375,249.6629277302676,-9530.258514635243,0,0
12763.45,250.8439455940287,-9521.461327793786,0,0
12773.4625,252.7035613968927,-9512.96195539129,0,0
12783.475,254.46172496959184,-9504.75465999528,0,0
12793.4875,256.7504380590998,-9496.32395708838,0,0
12803.5,258.41921704415796,-9489.135374294285,0,0
12813.5125,260.5921109950362,-9482.091687555598,0,0
12823.525,262.8269533072384,-9475.384942291075,0,0
12833.5375,265.2698545698468,-9469.72983666412,0,0
12843.55,266.82420874380836,-9463.921516458458,0,0
12853.5625,268.340060156886,-9458.899945367011,0,0
12863.575,269.7212744019341,-9453.9234411062,0,0
12873.5875,270.26967321112767,-9449.087483688449,0,0
12883.6,270.7798264661075,-9444.855336422655,0,0
12893.6125,270.439423651225,-9440.039334802372,0,0
12903.625,269.8144801107094,-9435.800979317732,0,0
12913.6375,268.6627243975458,-9430.972254762868,0,0
12923.65,267.16231293783846,-9425.88575909645,0,0
12933.6625,265.2117528975973,-9420.510546862097,0,0
12943.675,263.6341691526666,-9414.854209278408,0,0
12953.6875,262.08879550880795,-9408.980794886185,0,0
12963.7,259.99095477202695,-9402.63676012306,0,0
12973.7125,257.988521072648,-9396.170292778506,0,0
12983.725,256.17094023827127,-9389.649330598799,0,0
12993.7375,254.65345743895526,-9383.097690685476,0,0
13003.75,252.52835525589038,-9376.257631063165,0,0
13013.7625,250.68746849666005,-9368.895577336983,0,0
13023.775,249.33144371427318,-9361.781854922276,0,0
13033.7875,247.8489326736146,-9354.465398950384,0,0
13043.8,246.4024184981053,-9347.466864632775,0,0
13053.8125,245.0927736547408,-9339.86036278561,0,0
13063.825,243.7363024129787,-9332.576784708206,0,0
13073.8375,242.3274352237468,-9324.966047155394,0,0
13083.85,241.685483420903,-9317.47926025383,0,0
13093.8625,240.33315279063925,-9310.373007293896,0,0
13103.875,239.3586922010448,-9302.683253331754,0,0
13113.8875,238.47394942860504,-9294.745302707255,0,0
13123.9,237.96002275110467,-9287.327477339213,0,0
13133.9125,237.54440823693375,-9280.167622890487,0,0
13143.925,237.07708132556564,-9272.197704703241,0,0
13153.9375,236.1501010303407,-9265.180236041739,0,0
13163.95,235.45578620448964,-9257.144357924852,0,0
13173.9625,235.39197996076544,-9249.648704159243,0,0
13183.975,235.0918819000991,-9242.0992480425,0,0
13193.9875,234.74513767765728,-9234.812850290205,0,0
13204.0,234.4165884382294,-9227.436425222737,0,0
13214.0125,234.3584172034389,-9220.177554002776,0,0
13224.025,234.11056584092978,-9213.105477033883,0,0
13234.0375,234.26415131808653,-9205.86632323987,0,0
13244.05,233.78475492802005,-9198.46957018898,0,0
13254.0625,234.15809682664624,-9192.152943110383,0,0
13264.075,234.23299108472605,-9184.487743837197,0,0
13274.0875,234.01314405909912,-9178.157202792572,0,0
13284.1,234.8547014696106,-9171.490068477558,0,0
13294.1125,234.5616677799023,-9164.207697435879,0,0
13304.125,234.1431629115472,-9157.515912748142,0,0
13314.1375,233.85656416838125,-9151.626199464978,0,0
13324.15,234.27308471648777,-9145.641991297845,0,0
13334.1625,234.14421706510686,-9139.200664233775,0,0
13344.175,234.11398102040656,-9132.669448322955,0,0
13354.1875,233.40850966894547,-9126.41049260964,0,0
13364.2,232.21225290669787,-9120.6666244684,0,0
13374.2125,231.50140869392328,-9114.170225526725,0,0
13384.225,230.34880102527305,-9107.999703711786,0,0
13394.2375,229.39489816344232,-9101.336750032093,0,0
13404.25,228.47563386897534,-9095.184152690093,0,0
13414.2625,226.9703278003206,-9088.386270939107,0,0
13424.275,226.270345748445,-9081.787848929529,0,0
13434.2875,224.87047656633052,-9075.043556789004,0,0
13444.3,223.64102795757205,-9068.678645031088,0,0
13454.3125,222.6468120332603,-9060.665581684467,0,0
13464.325,222.15194838822802,-9053.000367268398,0,0
13474.3375,221.00590605325257,-9046.816090426386,0,0
13484.35,219.79302779380214,-9038.901761517538,0,0
13494.3625,219.47861617129377,-9031.351310211872,0,0
13504.375,218.77553094946612,-9024.147701516758,0,0
13514.3875,217.79063822894278,-9016.47920521937,0,0
13524.4,218.46167621433483,-9009.429372439496,0,0
13534.4125,217.1843969644434,-9001.343929319595,0,0
13544.425,217.8965833303689,-8993.832402514348,0,0
13554.4375,216.92423558388114,-8986.894292381116,0,0
13564.45,217.25217994251003,-8979.5929524235,0,0
13574.4625,217.72750416364374,-8971.563718606596,0,0
13584.475,217.3252370035391,-8965.117552275144,0,0
13594.4875,218.3506028435482,-8957.751162404273,0,0
13604.5,218.51482744832475,-8949.938062111589,0,0
13614.5125,218.79457341918987,-8943.16488138817,0,0
13624.525,219.53468256788048,-8936.584148490969,0,0
13634.5375,220.56119545289505,-8930.055249393521,0,0
13644.55,221.36051109148838,-8922.736588756507,0,0
13654.5625,222.357813860558,-8916.121871400303,0,0
13664.575,222.8620108430471,-8909.959792904063,0,0
13674.5875,223.62282517577287,-8903.96542894418,0,0
13684.6,224.57901236949027,-8898.57437876396,0,0
13694.6125,225.34109526042064,-8893.144772911332,0,0
13704.625,225.61346749669346,-8887.869746713912,0,0
13714.6375,225.48567328611458,-8882.962549268927,0,0
13724.65,225.46368770619895,-8878.0678499886,0,0
13734.6625,224.7633187723231,-8873.05372764268,0,0
13744.675,223.98720776633783,-8868.219498106246,0,0
13754.6875,222.4583857136723,-8862.91037903328,0,0
