Frequency (Hz),Impedance (ohms),Phase (Radians),Temperature (C),Humidity (%)
10000.0,274.64625893536936,-12001.421698043152,0,0
10010.0125,275.19672556692666,-11988.71006908874,0,0
10020.025,274.9053241971961,-11976.159171923011,0,0
10030.0375,275.7828023443597,-11963.931196673962,0,0
10040.05,276.5948363068118,-11950.576520435901,0,0
10050.0625,277.1156375708058,-11938.46601095761,0,0
10060.075,278.50783592145496,-11926.135612469061,0,0
10070.0875,279.92372154637474,-11913.823039870975,0,0
10080.1,281.4237076276344,-11902.417439021889,0,0
10090.1125,283.4225620469658,-11891.182951501563,0,0
10100.125,285.16526287352457,-11880.511227592056,0,0
10110.1375,286.9384484452886,-11870.468721312698,0,0
10120.15,288.49942121149155,-11861.509987677431,0,0
10130.1625,289.21739596206,-11852.874718809591,0,0
10140.175,289.8354693232482,-11844.332751811606,0,0
10150.1875,288.2245747027559,-11835.913925032437,0,0
10160.2,286.2766877659691,-11827.136266587955,0,0
10170.2125,283.6742504158646,-11817.919886766424,0,0
10180.225,281.2872276609189,-11807.313145757256,0,0
10190.2375,278.47175667401035,-11796.218497648364,0,0
10200.25,276.65943328736154,-11784.402993467407,0,0
10210.2625,274.64998287776496,-11772.569501901513,0,0
10220.275,272.8162325925641,-11760.809663481685,0,0
10230.2875,271.3757516673265,-11748.903549950865,0,0
10240.3,270.72194404765713,-11736.716737438039,0,0
10250.3125,269.7754144543873,-11724.844342403929,0,0
10260.325,268.50742275556667,-11713.192655159992,0,0
10270.3375,268.0353966008871,-11700.901724292935,0,0
10280.35,267.2503151467973,-11689.596920923274,0,0
10290.3625,266.56420185115843,-11678.061290274936,0,0
10300.375,265.9983209025573,-11665.96546668974,0,0
10310.3875,265.36399173988843,-11654.738754282607,0,0
10320.4,265.31528384165193,-11643.175176240182,0,0
10330.4125,264.6310956727247,-11631.295233411955,0,0
10340.425,264.49436941775565,-11619.749281162922,0,0
10350.4375,263.81956622961417,-11608.10869979771,0,0
10360.45,263.31497980754443,-11596.93426948881,0,0
10370.4625,262.8021349085761,-11585.3208167385,0,0
10380.475,262.5940445696366,-11573.510214138802,0,0
10390.4875,261.9651991450139,-11562.511695700969,0,0
10400.5,262.06103833006995,-11551.267934948817,0,0
10410.5125,261.61155277936916,-11539.936547387028,0,0
10420.525,261.3593254761525,-11528.287827782031,0,0
10430.5375,260.63949427557856,-11517.120824145328,0,0
10440.55,260.5723210576112,-11506.204330909803,0,0
10450.5625,260.54048830376155,-11494.737984666432,0,0
10460.575,259.7239354981727,-11483.923763408622,0,0
10470.5875,259.9082221129346,-11472.901666735466,0,0
10480.6,259.79152332009767,-11461.588014509476,0,0
10490.6125,259.3102987901629,-11450.924900436983,0,0
10500.625,258.87314767095353,-11439.689711975197,0,0
10510.6375,258.68837791456434,-11428.581364059539,0,0
10520.65,258.49306753456557,-11417.897203803888,0,0
10530.6625,258.4078934763753,-11406.338192695057,0,0
10540.675,258.17447038466827,-11395.451464596972,0,0
10550.6875,257.6688576343356,-11384.65125430151,0,0
10560.7,257.4708647715226,-11373.723233146431,0,0
10570.7125,257.55924157167647,-11362.43343887959,0,0
10580.725,256.84181511592897,-11351.924331504952,0,0
10590.7375,256.8587589213837,-11341.11244104499,0,0
10600.75,256.40937653589486,-11330.505100079366,0,0
10610.7625,256.43278133772105,-11319.257391795569,0,0
10620.775,256.2635401840446,-11308.444916684062,0,0
10630.7875,256.000374497877,-11298.019347979622,0,0
10640.8,255.86091346936774,-11287.086869972485,0,0
10650.8125,255.30039338826575,-11276.261804149266,0,0
10660.825,255.44399729039765,-11265.570025667079,0,0
10670.8375,255.02592403739177,-11254.94133443714,0,0
10680.85,254.86087675129542,-11244.290927092223,0,0
10690.8625,254.8592687844794,-11233.589855978087,0,0
10700.875,253.91594018019518,-11222.804387123853,0,0
10710.8875,254.26936637768551,-11212.122208753455,0,0
10720.9,254.17774269450098,-11201.94627202247,0,0
10730.9125,254.3899200155755,-11190.924873456494,0,0
10740.925,253.6128260760054,-11180.234130976422,0,0
10750.9375,253.74317412025383,-11169.995527081635,0,0
10760.95,253.71388207861312,-11159.654166126247,0,0
10770.9625,253.4567103875001,-11149.13693477625,0,0
10780.975,253.33201881265748,-11138.026000671705,0,0
10790.9875,253.33764991985726,-11128.012063614637,0,0
10801.0,253.21375308466074,-11117.970526349813,0,0
10811.0125,252.83605726498064,-11106.982433368396,0,0
10821.025,253.17636728725003,-11096.70667009881,0,0
10831.0375,252.75180962058536,-11086.531067443986,0,0
10841.05,252.77129806542854,-11075.788601713535,0,0
10851.0625,252.40149201692017,-11065.988381403666,0,0
10861.075,252.64406116696853,-11055.554453072265,0,0
10871.0875,252.01183103981583,-11045.219533204237,0,0
10881.1,251.8089709775836,-11035.012525804586,0,0
10891.1125,251.71582763238538,-11024.899621588555,0,0
10901.125,251.86741445318208,-11014.662459342351,0,0
10911.1375,251.61547854322893,-11004.422202208361,0,0
10921.15,251.721341119409,-10993.899596122652,0,0
10931.1625,251.61584946029402,-10983.619992970645,0,0
10941.175,251.20251619987496,-10973.707094512667,0,0
10951.1875,251.44240941057998,-10963.618774587576,0,0
10961.2,251.42825311720367,-10953.307986820893,0,0
10971.2125,251.08744061210345,-10943.302045265356,0,0
10981.225,251.1224159505796,-10932.7574129014,0,0
10991.2375,251.0047004350027,-10923.196123284304,0,0
11001.25,250.89632071125374,-10912.672894148445,0,0
11011.2625,250.6166587393117,-10903.06330039176,0,0
11021.275,250.83527371346412,-10892.917722031627,0,0
11031.2875,250.49950994478925,-10883.415324893991,0,0
11041.3,250.88445622433403,-10873.219215994468,0,0
11051.3125,250.87345614106226,-10863.383937083012,0,0
11061.325,250.32060023266408,-10853.371898025007,0,0
11071.3375,250.3045695620265,-10843.631782292583,0,0
11081.35,249.97836488229743,-10834.213390190424,0,0
11091.3625,249.8214228041783,-10824.045721834165,0,0
11101.375,249.63464012168347,-10814.21376635698,0,0
11111.3875,249.4009766333457,-10804.49219014776,0,0
11121.4,249.30284530771462,-10794.563814481768,0,0
11131.4125,249.5681615256242,-10784.585690738644,0,0
11141.425,249.27341972376445,-10774.818779365674,0,0
11151.4375,249.02571785532936,-10765.1006105894,0,0
11161.45,248.80695174811848,-10755.119994469036,0,0
11171.4625,248.4601143021297,-10745.207352191528,0,0
11181.475,248.86546186748757,-10735.458907305161,0,0
11191.4875,248.41791707308565,-10726.067588622709,0,0
11201.5,248.30810332542754,-10716.142860237247,0,0
11211.5125,248.04933731226052,-10706.031878331418,0,0
11221.525,248.06970890304532,-10696.364023887878,0,0
11231.5375,248.08057094563713,-10686.847650606564,0,0
11241.55,248.02006312106758,-10676.726278527432,0,0
11251.5625,247.6981328972577,-10667.391160840778,0,0
11261.575,247.85707092759313,-10657.567623679639,0,0
11271.5875,247.62865195205106,-10647.961497743778,0,0
11281.6,247.5308529252036,-10638.285588981065,0,0
11291.6125,247.05166693558982,-10628.64906632682,0,0
11301.625,247.60766385041995,-10618.905423080485,0,0
11311.6375,247.5591013219806,-10609.201418534993,0,0
11321.65,247.55378035985436,-10599.650558056537,0,0
11331.6625,247.21898162193548,-10590.291852468308,0,0
11341.675,247.3521159813124,-10580.226233357096,0,0
11351.6875,247.1853041051672,-10570.756194499962,0,0
11361.7,247.80893225674913,-10561.257698398298,0,0
11371.7125,247.47502339475415,-10551.756044148011,0,0
11381.725,247.40837225342554,-10542.428630707984,0,0
11391.7375,247.5944712066986,-10532.251742533535,0,0
11401.75,248.0688812277597,-10522.289539929912,0,0
11411.7625,247.70158413823938,-10513.124506071354,0,0
11421.775,247.78831397535723,-10504.003158117977,0,0
11431.7875,247.99819322884602,-10494.639000634523,0,0
11441.8,248.41336180098588,-10484.415894169468,0,0
11451.8125,248.3360772259045,-10475.416848611245,0,0
11461.825,248.16617844944514,-10466.01087043542,0,0
11471.8375,248.80819751902547,-10456.233314665122,0,0
11481.85,249.09666417483274,-10447.086678225805,0,0
11491.8625,248.99998391280147,-10437.53299980383,0,0
11501.875,248.84109513663364,-10428.013404146192,0,0
11511.8875,249.3894592880576,-10418.692777417265,0,0
11521.9,250.09547045602184,-10409.491934392563,0,0
11531.9125,250.4118332005113,-10400.080298436085,0,0
11541.925,250.8527222491867,-10390.545298221268,0,0
11551.9375,250.8813884633369,-10381.315585446495,0,0
11561.95,251.66057378090719,-10372.21994974155,0,0
11571.9625,251.44847576980493,-10362.576287485877,0,0
11581.975,252.72950816834066,-10353.944062037526,0,0
11591.9875,253.25909424920468,-10344.441607064648,0,0
11602.0,253.4220670251166,-10336.060290835789,0,0
11612.0125,254.59310597030867,-10326.919118551916,0,0
11622.025,254.88537282225496,-10317.741503932442,0,0
11632.0375,255.39072011380168,-10309.486700248013,0,0
11642.05,255.7933820250441,-10300.917768590058,0,0
11652.0625,256.42938868608036,-10292.07533780174,0,0
11662.075,257.18345187642296,-10283.836399416014,0,0
11672.0875,257.04970695662223,-10274.848496974424,0,0
11682.1,257.18134043149286,-10266.35421245022,0,0
11692.1125,257.06520721671836,-10258.074776126017,0,0
11702.125,256.81974556689306,-10248.943153449198,0,0
11712.1375,256.7211380025392,-10240.435419769137,0,0
11722.15,256.74087138877104,-10231.497971513942,0,0
11732.1625,257.1057014102619,-10222.649170167608,0,0
11742.175,257.08052771735976,-10213.715899290084,0,0
11752.1875,257.18996865622796,-10204.92646172793,0,0
11762.2,257.05286746136886,-10196.170086092157,0,0
11772.2125,257.45208954352745,-10186.927502076765,0,0
11782.225,257.91715433274,-10177.461049029293,0,0
11792.2375,258.4409611129115,-10168.745012413312,0,0
11802.25,259.6293240528341,-10159.474733430488,0,0
11812.2625,260.2470503890196,-10151.162897241096,0,0
11822.275,260.9602630103357,-10142.431887767172,0,0
11832.2875,262.3485810404165,-10134.090257526232,0,0
11842.3,262.7892996845669,-10125.802667390173,0,0
11852.3125,263.65253492121957,-10117.721375436045,0,0
11862.325,264.30508601407956,-10110.235209437295,0,0
11872.3375,264.7240499882231,-10101.96850711684,0,0
11882.35,264.54606399790424,-10095.06323148911,0,0
11892.3625,264.8522639812013,-10087.226797283758,0,0
11902.375,264.15065918992553,-10079.411211294466,0,0
11912.3875,263.80950998336476,-10071.565587537105,0,0
11922.4,263.1984517670427,-10063.188298030867,0,0
11932.4125,261.9897841789682,-10054.360138279353,0,0
11942.425,261.29941962390836,-10045.590989418948,0,0
11952.4375,260.78348111170413,-10036.550920094718,0,0
11962.45,260.76000036559765,-10027.047212473068,0,0
11972.4625,260.67431290270247,-10017.696474786166,0,0
11982.475,260.6692568029503,-10007.965455251144,0,0
11992.4875,261.13265942258647,-9998.231087418575,0,0
12002.5,261.4773307735421,-9988.863217722197,0,0
12012.5125,262.4772582695576,-9979.251725165268,0,0
12022.525,263.2837750317542,-9969.664350286219,0,0
12032.5375,264.62412607086475,-9960.33857396425,0,0
12042.55,266.038712947057,-9951.068219416678,0,0
12052.5625,267.52639038471466,-9941.959706986348,0,0
12062.575,269.34581113852306,-9933.005795701347,0,0
12072.5875,271.03434501330156,-9923.967576059913,0,0
12082.6,272.87690506698124,-9915.020065624125,0,0
12092.6125,274.96862452605404,-9906.147991858466,0,0
12102.625,277.3607744060535,-9897.40576177202,0,0
12112.6375,279.78213129806306,-9889.261362746338,0,0
12122.65,282.00959668079247,-9881.295092454502,0,0
12132.6625,285.15267443820755,-9872.79293936439,0,0
12142.675,287.46805741607653,-9865.272190389891,0,0
12152.6875,290.6362203897482,-9857.430591687089,0,0
12162.7,293.6308213056401,-9850.178009671896,0,0
12172.7125,296.7890001127276,-9843.144997411178,0,0
12182.725,300.2953736067748,-9836.709141943562,0,0
12192.7375,303.49617149295574,-9830.22809268331,0,0
12202.75,306.85298785943223,-9824.557025208222,0,0
12212.7625,310.0891108885422,-9819.166400432961,0,0
12222.775,313.0113414595599,-9814.170115166859,0,0
12232.7875,315.65418760022925,-9810.150234263754,0,0
12242.8,318.2006589457974,-9806.285015855825,0,0
12252.8125,320.51544169293834,-9802.915968172014,0,0
12262.825,322.0719577998028,-9800.02158250014,0,0
12272.8375,323.0452052917197,-9797.063902763435,0,0
12282.85,323.4782614894799,-9794.953215200872,0,0
12292.8625,322.7570477375382,-9792.830884426116,0,0
12302.875,321.4861450642584,-9790.230802647045,0,0
12312.8875,319.2040906643177,-9787.734630351202,0,0
12322.9,316.78352025790434,-9784.757656248934,0,0
12332.9125,313.29723350420653,-9781.407947992524,0,0
12342.925,309.00519684675476,-9777.357693444319,0,0
12352.9375,304.85959021551656,-9772.25012708289,0,0
12362.95,300.09162583925416,-9766.706986600751,0,0
12372.9625,295.63626081232917,-9760.352965376349,0,0
12382.975,291.371976799867,-9753.129456286362,0,0
12392.9875,287.6824175420558,-9745.484380036218,0,0
12403.0,284.1417508310641,-9737.563447305227,0,0
12413.0125,281.18622064272216,-9728.782443050173,0,0
12423.025,278.45403491440055,-9719.919295196745,0,0
12433.0375,276.38174288638794,-9711.654713015294,0,0
12443.05,274.65781341369495,-9702.87074637627,0,0
12453.0625,273.20350172084096,-9694.189270163337,0,0
12463.075,271.84605512993056,-9685.995820458666,0,0
12473.0875,270.4750037155528,-9677.85073053621,0,0
12483.1,269.10132413530994,-9669.755121532828,0,0
12493.1125,268.18798381393015,-9661.18537693102,0,0
12503.125,267.1889926388087,-9653.183686718918,0,0
12513.1375,265.78567404349883,-9645.297045032108,0,0
12523.15,264.2786366582652,-9636.98881101666,0,0
12533.1625,263.31036902475716,-9629.437263480928,0,0
12543.175,262.33531495281306,-9620.96592553799,0,0
12553.1875,261.5329315105937,-9612.663491380834,0,0
12563.2,260.0973614453256,-9604.310513803857,0,0
12573.2125,259.32420475336676,-9595.604845030293,0,0
12583.225,258.0806128890895,-9586.277522720908,0,0
12593.2375,257.3989922370221,-9578.276661472228,0,0
12603.25,257.4950742384531,-9569.308264863157,0,0
12613.2625,257.5138898720003,-9559.999481011553,0,0
12623.275,257.40654748795816,-9551.162616007288,0,0
12633.2875,257.8680085162473,-9542.63472645976,0,0
12643.3,258.9898141649859,-9533.512217410054,0,0
12653.3125,259.9682438443956,-9525.056793575895,0,0
12663.325,260.84681956720124,-9516.662213444804,0,0
12673.3375,262.4690781651774,-9508.89676204807,0,0
12683.35,264.34097155770826,-9501.531015001152,0,0
12693.3625,265.66681131968346,-9494.198935545184,0,0
12703.375,267.64287019424955,-9487.28504425266,0,0
12713.3875,269.16853194550987,-9481.236874687795,0,0
12723.4,270.668856298648,-9475.116042678155,0,0
12733.4125,272.24096797619114,-9469.40189614905,0,0
12743.425,273.02740743366434,-9464.07488723927,0,0
12753.4375,273.67941412760314,-9458.90059052671,0,0
12763.45,273.9273182405414,-9454.038230350116,0,0
12773.4625,273.7018902822413,-9448.686374989615,0,0
12783.475,273.130037389369,-9443.96077488693,0,0
12793.4875,272.20212244424016,-9438.538519523026,0,0
12803.5,270.933197686293,-9433.098960446452,0,0
12813.5125,269.5913697864841,-9427.284487242747,0,0
12823.525,268.19183566361755,-9421.676225909945,0,0
12833.5375,266.3063006582757,-9415.765309391065,0,0
12843.55,265.09800217292326,-9409.774776872322,0,0
12853.5625,263.0109124960118,-9403.439796456842,0,0
12863.575,261.1533938552017,-9396.914044616113,0,0
12873.5875,259.6346896454902,-9390.1473087447,0,0
12883.6,258.18631068322424,-9383.55736013253,0,0
12893.6125,256.1781520653381,-9376.427441577072,0,0
12903.625,254.6679290569386,-9369.509701105018,0,0
12913.6375,253.16296119804798,-9362.03792101478,0,0
12923.65,251.74676503725848,-9355.166384093067,0,0
12933.6625,250.0583864287529,-9347.62441538602,0,0
12943.675,249.0324623846117,-9340.21019846435,0,0
12953.6875,247.5358745241904,-9332.507856307677,0,0
12963.7,246.76217119553363,-9325.3277596845,0,0
12973.7125,245.52979479722367,-9317.843627009204,0,0
12983.725,244.2251817913891,-9310.425759451644,0,0
12993.7375,243.58714005313044,-9302.626549108087,0,0
13003.75,242.61922943446478,-9294.988965990191,0,0
13013.7625,241.50944409480053,-9287.63183500314,0,0
13023.775,241.33873771288785,-9279.613106784118,0,0
13033.7875,240.2775063346949,-9272.511597734188,0,0
13043.8,239.55785553530376,-9264.828356483853,0,0
13053.8125,238.95148008902544,-9257.078143942785,0,0
13063.825,238.33074999517882,-9249.613277943945,0,0
13073.8375,238.1054107315727,-9242.058711108048,0,0
13083.85,237.87837955288902,-9234.370646146719,0,0
13093.8625,237.68313487962158,-9227.630179998698,0,0
13103.875,237.2291407247328,-9219.550582407568,0,0
13113.8875,237.3643128781908,-9212.13093923012,0,0
13123.9,237.02715323878104,-9204.816409462439,0,0
13133.9125,236.85732521825676,-9197.30509048797,0,0
13143.925,237.14627070508362,-9190.15906517821,0,0
13153.9375,236.73186951898379,-9182.83605906686,0,0
13163.95,237.29006341127658,-9175.63506654807,0,0
13173.9625,237.2307625941735,-9168.780319176,0,0
13183.975,237.32111593025044,-9161.644000126902,0,0
13193.9875,237.54114172104136,-9154.864319686747,0,0
13204.0,237.9088293364626,-9148.229054541573,0,0
13214.0125,238.0165310218387,-9141.835429678657,0,0
13224.025,238.22130505435507,-9135.672426707042,0,0
13234.0375,238.22650003795357,-9128.842896949554,0,0
13244.05,238.67769087574436,-9122.93242185978,0,0
13254.0625,238.39070404266548,-9116.885367486968,0,0
13264.075,237.865401717549,-9110.78826131627,0,0
13274.0875,237.60457534643822,-9104.712151060616,0,0
13284.1,237.1935544487903,-9098.840246382682,0,0
13294.1125,236.2624880335743,-9092.85634857297,0,0
13304.125,235.0681530696726,-9086.99907670767,0,0
13314.1375,233.7990846859655,-9080.322533579065,0,0
13324.15,232.86170344998317,-9074.039478911207,0,0
13334.1625,231.59038153872967,-9067.940405475196,0,0
13344.175,230.22371159343058,-9061.223372023065,0,0
13354.1875,228.72584449405142,-9054.013175335185,0,0
13364.2,227.88545343045354,-9046.976451853641,0,0
13374.2125,226.52909506821953,-9039.877118504312,0,0
13384.225,225.60199539847918,-9032.35247140205,0,0
13394.2375,224.64901897023796,-9025.523618077515,0,0
13404.25,223.76218944382975,-9017.936147134194,0,0
13414.2625,223.1278157763111,-9010.210844721676,0,0
13424.275,223.04781767733314,-9002.296871455967,0,0
13434.2875,222.05500883674657,-8995.747718927283,0,0
13444.3,221.74924169576826,-8987.980206339062,0,0
13454.3125,221.7460375906563,-8980.661500343198,0,0
13464.325,221.10267950670075,-8972.906819383044,0,0
13474.3375,221.67100560338196,-8965.811693507638,0,0
13484.35,221.15163512484094,-8958.328727423064,0,0
13494.3625,221.64340923361237,-8950.821009359433,0,0
13504.375,221.74118909963065,-8943.79332864218,0,0
13514.3875,222.44321768278607,-8936.956236071863,0,0
13524.4,223.56105165991215,-8929.879264034485,0,0
13534.4125,223.31660611370026,-8922.721118269994,0,0
13544.425,223.67165109076583,-8916.738631832275,0,0
13554.4375,225.3254544778308,-8910.283083469081,0,0
13564.45,225.76938489976465,-8904.086783974317,0,0
13574.4625,226.3644299455528,-8897.804615759129,0,0
13584.475,226.3213998593301,-8892.237767880819,0,0
13594.4875,227.0217470692807,-8886.869984533787,0,0
13604.5,227.38567287503594,-8881.491128030593,0,0
13614.5125,226.7179891895556,-8876.561707577099,0,0
13624.525,226.32918993169622,-8871.48415300062,0,0
13634.5375,225.42298161251753,-8866.213579435514,0,0
13644.55,223.8306293665,-8860.344337976489,0,0
13654.5625,222.95773494768682,-8854.52895282556,0,0
13664.575,221.75199184431662,-8848.07537881399,0,0
13674.5875,220.7786901781994,-8842.179248721628,0,0
13684.6,219.96573062449278,-8835.762785794519,0,0
13694.6125,218.49858525476546,-8829.246585667508,0,0
13704.625,217.0816317275209,-8822.763450304305,0,0
13714.6375,215.92647823744244,-8815.140178904128,0,0
13724.65,215.50492885930146,-8808.808160489887,0,0
13734.6625,214.30855740454393,-8801.899815615558,0,0
13744.675,213.42317029896896,-8794.648883781976,0,0
