Frequency (Hz),Impedance (ohms),Phase (Radians),Temperature (C),Humidity (%)
10000.0,277.02109869949663,-12066.7835993605,0,0
10010.0125,276.3953642117859,-12054.754453655909,0,0
10020.025,276.31874809835324,-12042.562088225333,0,0
10030.0375,275.89933884478864,-12030.613423508006,0,0
10040.05,275.57340083180037,-12017.664370396762,0,0
10050.0625,275.1191207282445,-12005.361739339016,0,0
10060.075,274.996225552497,-11992.96213295692,0,0
10070.0875,274.59878270059477,-11980.141069970003,0,0
10080.1,275.0281885781664,-11967.366139103158,0,0
10090.1125,275.214053444787,-11955.536394237199,0,0
10100.125,275.69267253615936,-11943.017701281407,0,0
10110.1375,276.62281477037976,-11930.089909231712,0,0
10120.15,277.535464452466,-11917.75939601463,0,0
10130.1625,278.7615556923065,-11905.587510227766,0,0
10140.175,279.7400959340746,-11893.171938191812,0,0
10150.1875,281.8140053803165,-11882.274772534609,0,0
10160.2,283.4411484057901,-11870.699430880954,0,0
10170.2125,285.3674970448838,-11860.231951345879,0,0
10180.225,286.8611141760538,-11850.019048073356,0,0
10190.2375,288.67385593049033,-11840.567059885638,0,0
10200.25,289.7084303298957,-11832.150503522054,0,0
10210.2625,289.9882256980318,-11824.267353903926,0,0
10220.275,289.0496507115667,-11815.536271999856,0,0
10230.2875,287.3450298552799,-11806.854152656608,0,0
10240.3,285.11219854892977,-11797.828829294984,0,0
10250.3125,282.06174163718845,-11787.159825808752,0,0
10260.325,279.78409097299544,-11776.717041714674,0,0
10270.3375,277.20560891717975,-11765.595596430692,0,0
10280.35,275.2736420640735,-11753.91701847701,0,0
10290.3625,273.8635465042048,-11741.985932475422,0,0
10300.375,272.5328615226583,-11730.1683209791,0,0
10310.3875,271.3250378141907,-11718.4552823696,0,0
10320.4,270.3103562226446,-11706.354369443297,0,0
10330.4125,269.32736742705936,-11695.209462113786,0,0
10340.425,268.6603292537494,-11682.978902557888,0,0
10350.4375,267.3122645327208,-11671.490638221148,0,0
10360.45,266.95324233023223,-11659.800429546047,0,0
10370.4625,266.2407288655044,-11648.06373237834,0,0
10380.475,266.27590417590056,-11636.113546047227,0,0
10390.4875,265.4108924839435,-11624.759904615006,0,0
10400.5,264.85441412060544,-11613.66178854055,0,0
10410.5125,264.4003012664599,-11602.139072325523,0,0
10420.525,264.46611456551415,-11590.415062774959,0,0
10430.5375,263.83349901035467,-11579.05011431037,0,0
10440.55,263.43050308115073,-11568.175570377054,0,0
10450.5625,262.97320073741247,-11556.697996512605,0,0
10460.575,262.8806110159899,-11545.198324452414,0,0
10470.5875,261.9163695154597,-11534.646630746049,0,0
10480.6,262.25203685469614,-11522.618099484835,0,0
10490.6125,261.98497333792193,-11512.014982435856,0,0
10500.625,261.0261183214898,-11500.501625607498,0,0
10510.6375,260.91900554553087,-11489.467364569835,0,0
10520.65,261.05005595678927,-11478.693589173185,0,0
10530.6625,260.6366393576143,-11467.20499148238,0,0
10540.675,260.44423404265706,-11456.276457572916,0,0
10550.6875,259.6333374535215,-11444.984280457022,0,0
10560.7,259.5180525012695,-11434.004356706724,0,0
10570.7125,259.6807297480851,-11423.227762085966,0,0
10580.725,259.0237641444375,-11412.193394015314,0,0
10590.7375,259.0074690098403,-11401.342198953114,0,0
10600.75,258.47883863971697,-11390.198706653297,0,0
10610.7625,258.29377677661336,-11379.454069912994,0,0
10620.775,258.16006910894595,-11368.596009540905,0,0
10630.7875,258.2342542916377,-11357.658883636388,0,0
10640.8,257.779380667314,-11346.855323604106,0,0
10650.8125,257.4986456820856,-11335.916115487707,0,0
10660.825,257.12257942291717,-11325.571193566819,0,0
10670.8375,257.00737202905026,-11314.659966831632,0,0
10680.85,256.6708650750008,-11303.95623752555,0,0
10690.8625,256.84835585646135,-11293.300907820014,0,0
10700.875,256.5791731428981,-11282.508768365806,0,0
10710.8875,256.557209399933,-11271.634013415307,0,0
10720.9,255.78011895397455,-11260.825452971341,0,0
10730.9125,255.43843884400192,-11250.21386939986,0,0
10740.925,255.44977728761634,-11240.041673175128,0,0
10750.9375,255.37039169058542,-11229.261839490617,0,0
10760.95,255.09213109246323,-11218.91023607149,0,0
10770.9625,254.82656962590687,-11208.136160988706,0,0
10780.975,254.71828606998835,-11197.359151318215,0,0
10790.9875,254.81520379015066,-11187.102337285609,0,0
10801.0,254.3940230266051,-11176.586309863827,0,0
10811.0125,254.19745365753283,-11166.352771722384,0,0
10821.025,253.97214176316024,-11155.377535037986,0,0
10831.0375,253.67592690040166,-11145.305983473689,0,0
10841.05,253.81762730657937,-11134.543993935315,0,0
10851.0625,253.4219638940317,-11123.93844587508,0,0
10861.075,253.2553898371395,-11113.473323350561,0,0
10871.0875,253.37679160034975,-11103.434094473438,0,0
10881.1,253.5919023116544,-11092.891329548955,0,0
10891.1125,253.3242478185452,-11082.950060794494,0,0
10901.125,253.57748380145566,-11072.233568351145,0,0
10911.1375,253.03951071615396,-11062.176112345476,0,0
10921.15,252.87741261535928,-11051.781402460723,0,0
10931.1625,252.5090532201967,-11041.7466754962,0,0
10941.175,252.48043444673308,-11031.554199072467,0,0
10951.1875,252.6869187602754,-11021.284687929765,0,0
10961.2,252.40430421595988,-11010.94566912761,0,0
10971.2125,252.178714512018,-11000.821387721702,0,0
10981.225,251.8848322510407,-10990.767277254405,0,0
10991.2375,251.75552308023896,-10980.501306676642,0,0
11001.25,251.86067545799528,-10970.442273741079,0,0
11011.2625,252.13594954284898,-10960.336393896656,0,0
11021.275,252.10311491295457,-10949.862169898433,0,0
11031.2875,251.67795479457834,-10940.31097360752,0,0
11041.3,251.83473448069742,-10929.990402065161,0,0
11051.3125,252.0057123793203,-10920.09391590807,0,0
11061.325,251.89084190718972,-10910.197290665841,0,0
11071.3375,251.54361655609347,-10900.385849852873,0,0
11081.35,251.19682347223593,-10890.551027202671,0,0
11091.3625,251.22315193086678,-10880.49197778445,0,0
11101.375,251.30758640376368,-10870.34323879331,0,0
11111.3875,251.04902590172827,-10860.66777531199,0,0
11121.4,251.32475406285488,-10850.972949326622,0,0
11131.4125,250.84606460998526,-10840.870941390955,0,0
11141.425,250.8043910376091,-10830.842452553507,0,0
11151.4375,250.46785803130481,-10821.462292875412,0,0
11161.45,250.59243781604496,-10811.68731799288,0,0
11171.4625,250.48484811558802,-10801.843704328354,0,0
11181.475,250.16393532031822,-10792.15380643077,0,0
11191.4875,249.65329994893622,-10782.312670711384,0,0
11201.5,249.80392912262857,-10772.724443946414,0,0
11211.5125,249.6733523233372,-10762.773014602959,0,0
11221.525,249.5749265783385,-10753.106431414199,0,0
11231.5375,249.67160516657265,-10743.395513460127,0,0
11241.55,249.1779256957145,-10733.542690711183,0,0
11251.5625,249.66265428318903,-10723.74855329924,0,0
11261.575,249.57701580688746,-10714.05574266935,0,0
11271.5875,249.21500001748373,-10704.236023688476,0,0
11281.6,249.21673932249476,-10694.70565950744,0,0
11291.6125,249.2119904601318,-10684.79113536268,0,0
11301.625,248.80334141527698,-10675.176186904462,0,0
11311.6375,248.522086901897,-10665.612134560999,0,0
11321.65,248.54873041131657,-10656.068005151072,0,0
11331.6625,248.44879800280583,-10646.46884669629,0,0
11341.675,248.93632107676277,-10636.560615498927,0,0
11351.6875,248.6424111119349,-10627.549786279636,0,0
11361.7,248.52611824252946,-10617.583885760894,0,0
11371.7125,248.64670476498188,-10608.150418384772,0,0
11381.725,248.4446365232515,-10598.48600964416,0,0
11391.7375,248.53415717793618,-10588.88457999038,0,0
11401.75,248.27988794478514,-10578.450012446074,0,0
11411.7625,248.4325071652725,-10569.30303341615,0,0
11421.775,248.6455486385747,-10559.975187600736,0,0
11431.7875,248.53037912416224,-10550.255012150188,0,0
11441.8,248.6531685594574,-10540.51215517276,0,0
11451.8125,248.5932866832273,-10531.509411901116,0,0
11461.825,248.50291364075966,-10522.045226158649,0,0
11471.8375,247.97393845898767,-10512.241670355314,0,0
11481.85,248.7575066977332,-10502.729618429275,0,0
11491.8625,248.7575810266586,-10493.55950836755,0,0
11501.875,249.23158521217036,-10483.792958392174,0,0
11511.8875,249.23434796546653,-10474.57331258032,0,0
11521.9,248.99282930026794,-10464.917139520372,0,0
11531.9125,249.68639717395766,-10455.606353637946,0,0
11541.925,249.92265365318974,-10446.187427078485,0,0
11551.9375,249.7107105751682,-10436.592533788782,0,0
11561.95,250.4548443217987,-10427.420279248578,0,0
11571.9625,250.1281561209464,-10417.950601341237,0,0
11581.975,250.78635765559943,-10408.602589838243,0,0
11591.9875,250.77239897181616,-10398.975922887714,0,0
11602.0,251.52405702651407,-10390.050864513087,0,0
11612.0125,251.98720933421,-10380.217237249963,0,0
11622.025,252.05674327108454,-10371.223629696766,0,0
11632.0375,252.77854448034324,-10361.942994658606,0,0
11642.05,253.51065029926332,-10352.87097336493,0,0
11652.0625,253.9861722769847,-10343.761754077628,0,0
11662.075,254.32110870585967,-10334.592938033931,0,0
11672.0875,255.27194904396148,-10325.442931406978,0,0
11682.1,255.86836095427074,-10316.814792100738,0,0
11692.1125,256.4521070900395,-10307.873373828024,0,0
11702.125,257.775926784254,-10298.64982157986,0,0
11712.1375,258.49794965616127,-10289.672424490529,0,0
11722.15,259.2034669438217,-10281.5979806836,0,0
11732.1625,259.5811960904294,-10273.167606515872,0,0
11742.175,260.30761235191443,-10264.626356659393,0,0
11752.1875,260.4260542678554,-10256.314093358935,0,0
11762.2,261.04713395777645,-10248.39768660808,0,0
11772.2125,261.18838758230794,-10240.286104875311,0,0
11782.225,261.122225957647,-10231.760879094722,0,0
11792.2375,260.98016501023847,-10223.343244352536,0,0
11802.25,260.9190662930047,-10214.489335267568,0,0
11812.2625,261.14064598772785,-10206.446272970043,0,0
11822.275,260.39659768873975,-10197.983363964162,0,0
11832.2875,260.4392199164543,-10188.656023008418,0,0
11842.3,260.29193293417575,-10179.893431810422,0,0
11852.3125,260.1627829489484,-10170.536745910507,0,0
11862.325,260.9044996420669,-10161.856090449704,0,0
11872.3375,260.75940233734946,-10152.823345860073,0,0
11882.35,262.04439950890475,-10143.621052632085,0,0
11892.3625,262.0990651777676,-10134.533240666653,0,0
11902.375,263.6371365156845,-10126.446275246308,0,0
11912.3875,264.17839567552625,-10117.164705508068,0,0
11922.4,265.2877357603539,-10108.920111986574,0,0
11932.4125,266.27637176277085,-10100.364872307622,0,0
11942.425,267.72662169643047,-10092.24612379669,0,0
11952.4375,268.4136975151611,-10084.049002283515,0,0
11962.45,269.4538062057572,-10076.91031567388,0,0
11972.4625,270.3946690509887,-10069.171340065928,0,0
11982.475,270.78914078148466,-10061.831873549374,0,0
11992.4875,270.8046944606747,-10054.341304754344,0,0
12002.5,270.62838718473665,-10047.048714961866,0,0
12012.5125,270.3312058522492,-10039.909229882733,0,0
12022.525,269.6217970198169,-10031.946487796835,0,0
12032.5375,268.8379652601227,-10023.942982894465,0,0
12042.55,268.151812662071,-10015.854436494794,0,0
12052.5625,267.1163929135806,-10006.913679080897,0,0
12062.575,266.48285131208115,-9997.825268074303,0,0
12072.5875,266.2152568428093,-9989.025259635118,0,0
12082.6,265.8773491992715,-9979.259761410076,0,0
12092.6125,266.58734888042466,-9969.78652296346,0,0
12102.625,266.7043770721893,-9959.946716704171,0,0
12112.6375,267.3716355083997,-9950.78444188192,0,0
12122.65,268.39056118324504,-9941.030338046492,0,0
12132.6625,269.6112216910279,-9931.83734801176,0,0
12142.675,271.28223399960604,-9922.523198851295,0,0
12152.6875,272.9915174785268,-9913.409945837033,0,0
12162.7,274.65615540501966,-9904.359887820663,0,0
12172.7125,276.67787596897,-9895.367446081213,0,0
12182.725,278.77778650427473,-9886.533547571556,0,0
12192.7375,281.43150699169587,-9877.94047646556,0,0
12202.75,283.8698025378964,-9870.168867121778,0,0
12212.7625,286.992844192697,-9861.669228905996,0,0
12222.775,289.2695777196018,-9853.619262706261,0,0
12232.7875,292.5065933352253,-9846.099398716922,0,0
12242.8,295.82159685441934,-9839.101201117453,0,0
12252.8125,298.7636863997623,-9832.294668924997,0,0
12262.825,301.95762393145884,-9825.50705723831,0,0
12272.8375,305.06753408399135,-9819.258278198009,0,0
12282.85,308.06742401954494,-9813.539265614996,0,0
12292.8625,311.3447843648163,-9808.020480283323,0,0
12302.875,314.64385072997425,-9803.184754465345,0,0
12312.8875,317.1607522051319,-9798.737222182812,0,0
12322.9,319.7913760820975,-9794.604536600633,0,0
12332.9125,321.87171833442073,-9791.14165221186,0,0
12342.925,323.54500489953097,-9788.407875132272,0,0
12352.9375,324.49865799201297,-9784.94344417974,0,0
12362.95,325.1553360965128,-9782.648965186703,0,0
12372.9625,325.0797499143791,-9780.386471325688,0,0
12382.975,324.7013583234457,-9777.792529529956,0,0
12392.9875,322.77368141493827,-9775.289746174345,0,0
12403.0,321.0684871101767,-9772.530877126166,0,0
12413.0125,317.3882075131903,-9769.432101964798,0,0
12423.025,314.52897559317233,-9766.307763074408,0,0
12433.0375,310.74133993142135,-9761.462848233688,0,0
12443.05,305.87798524054745,-9756.598728113651,0,0
12453.0625,301.91023468122324,-9751.333420300918,0,0
12463.075,297.55794014377784,-9744.56704275253,0,0
12473.0875,293.60252886373024,-9737.994125103714,0,0
12483.1,289.46113587718133,-9730.066680604832,0,0
12493.1125,285.83325479355335,-9722.62581951378,0,0
12503.125,282.8682208858774,-9714.628527275887,0,0
12513.1375,280.0917687188492,-9706.391303718854,0,0
12523.15,277.494917133091,-9697.836563284916,0,0
12533.1625,275.6603701973434,-9689.741385734045,0,0
12543.175,273.949849449844,-9681.270184352255,0,0
12553.1875,272.2897531975315,-9673.005965074597,0,0
12563.2,271.0107656138486,-9664.560456736932,0,0
12573.2125,269.3550145190327,-9656.537576053437,0,0
12583.225,268.05243578835723,-9648.638007733703,0,0
12593.2375,267.0072652882311,-9640.271343472317,0,0
12603.25,265.702393982656,-9632.63529740494,0,0
12613.2625,263.8462279119797,-9624.743683268718,0,0
12623.275,262.47817206940954,-9616.757009044637,0,0
12633.2875,260.82879117484947,-9608.583082080293,0,0
12643.3,259.8523549694406,-9600.439657619912,0,0
12653.3125,258.236683685969,-9592.191567915801,0,0
12663.325,257.1144647756838,-9583.1943413037,0,0
12673.3375,255.87099352413358,-9574.820479166658,0,0
12683.35,255.02064703524766,-9566.133937997169,0,0
12693.3625,254.13507752534457,-9557.544274953894,0,0
12703.375,253.37690078182058,-9548.774612059813,0,0
12713.3875,252.81897791146415,-9539.585116202348,0,0
12723.4,252.83325593889833,-9530.452217225542,0,0
12733.4125,252.8148185479809,-9521.658733511127,0,0
12743.425,253.11926061055192,-9512.809011423056,0,0
12753.4375,253.81727591628228,-9503.532277816845,0,0
12763.45,254.27818453940287,-9495.26113444987,0,0
12773.4625,255.5200336637532,-9486.656094059814,0,0
12783.475,256.86420864880273,-9478.146108878236,0,0
12793.4875,258.73679595838615,-9470.686925191427,0,0
12803.5,260.485375806006,-9462.572299912561,0,0
12813.5125,261.98198789008086,-9455.361288745764,0,0
12823.525,264.4475174692776,-9448.371084712504,0,0
12833.5375,265.9940798325114,-9442.175596445688,0,0
12843.55,267.4563323567935,-9436.152083385883,0,0
12853.5625,268.8598912436629,-9430.403733377085,0,0
12863.575,270.1083982934427,-9425.38420800253,0,0
12873.5875,270.9328178093805,-9420.493611484058,0,0
12883.6,271.37566522322646,-9415.061920409806,0,0
12893.6125,270.71442019228107,-9410.443571047736,0,0
12903.625,270.6619753150543,-9405.779681918597,0,0
12913.6375,269.65501840023296,-9400.70125471573,0,0
12923.65,268.673216434019,-9395.252802411707,0,0
12933.6625,267.0187211872047,-9390.029561153344,0,0
12943.675,265.65629274423827,-9384.444920052545,0,0
12953.6875,264.04615583303274,-9378.561368644714,0,0
12963.7,262.39014041361185,-9372.521608742176,0,0
12973.7125,260.6332448347493,-9366.515536401603,0,0
12983.725,258.76217835550926,-9359.685795755962,0,0
12993.7375,257.1903081481664,-9352.984246939734,0,0
13003.75,255.67647007709334,-9346.05617658226,0,0
13013.7625,253.95797563737366,-9338.995429809294,0,0
13023.775,252.22564805390542,-9331.880133191846,0,0
13033.7875,251.06023890920318,-9324.651792804085,0,0
13043.8,249.4435253795438,-9317.452242353094,0,0
13053.8125,248.4509311103853,-9310.275899564502,0,0
13063.825,247.21010793154858,-9302.68924573603,0,0
13073.8375,245.8785388493305,-9295.524909222226,0,0
13083.85,245.00853740093413,-9287.996212166388,0,0
13093.8625,243.96148022230332,-9280.52015030167,0,0
13103.875,243.15434719976,-9272.887163732865,0,0
13113.8875,242.16927152735494,-9265.505805876915,0,0
13123.9,241.44341103772535,-9257.957340618488,0,0
13133.9125,240.34378969617882,-9250.339570072381,0,0
13143.925,239.91815004824082,-9242.966892065217,0,0
13153.9375,239.42427535163756,-9235.5541165441,0,0
13163.95,238.78183699268138,-9228.435644780464,0,0
13173.9625,238.72039202762363,-9220.52020959872,0,0
13183.975,238.58701016868633,-9213.001190616911,0,0
13193.9875,238.4335059378222,-9205.774395181772,0,0
13204.0,238.33280952412065,-9198.524122789464,0,0
13214.0125,237.95362112436354,-9191.212337565545,0,0
13224.025,237.61139670520316,-9183.843311903218,0,0
13234.0375,237.6348853931935,-9176.869941979052,0,0
13244.05,237.80319719851263,-9169.540144635572,0,0
13254.0625,237.7824974694555,-9163.612024213044,0,0
13264.075,237.73497149951038,-9155.650147896597,0,0
13274.0875,238.0723435161994,-9148.851344420566,0,0
13284.1,238.28530551962558,-9142.562679732462,0,0
13294.1125,238.05032835533942,-9135.800900385535,0,0
13304.125,238.18550081285585,-9129.27382610818,0,0
13314.1375,238.80203480035186,-9122.780427995773,0,0
13324.15,238.57662433230726,-9116.668744039662,0,0
13334.1625,238.86394855128947,-9110.795156748069,0,0
13344.175,237.97999643425112,-9104.34452312353,0,0
13354.1875,237.50909646702848,-9098.725662549927,0,0
13364.2,237.34279594789774,-9092.806728292247,0,0
13374.2125,236.60418218862694,-9086.040501770913,0,0
13384.225,235.65815440604365,-9080.086629531837,0,0
13394.2375,234.53631237342935,-9074.558728011334,0,0
13404.25,233.71083877437513,-9068.595498537126,0,0
13414.2625,232.2961028743266,-9061.631867899845,0,0
13424.275,231.3074099126749,-9054.801229207744,0,0
13434.2875,229.572051147322,-9047.667787981536,0,0
13444.3,228.4175335119988,-9040.884808807286,0,0
13454.3125,227.20888925455338,-9034.212171413792,0,0
13464.325,226.13719603652066,-9027.13806890137,0,0
13474.3375,225.3856437073607,-9019.594980059946,0,0
13484.35,224.93739093436906,-9012.935353849894,0,0
13494.3625,224.07126063185308,-9005.670865005643,0,0
13504.375,222.69957803076665,-8998.423117581495,0,0
13514.3875,221.58645627067384,-8991.114058217789,0,0
13524.4,221.02677376819688,-8982.99156519115,0,0
13534.4125,221.46056423859514,-8975.78670623829,0,0
13544.425,221.34611365615666,-8968.916658371641,0,0
13554.4375,220.44544011531988,-8961.326283614513,0,0
13564.45,220.6734861961255,-8953.450180296843,0,0
13574.4625,220.75964462334227,-8946.81405173303,0,0
13584.475,219.8276789886397,-8938.938051812693,0,0
13594.4875,221.07123275303937,-8932.214865322592,0,0
13604.5,220.47081058060795,-8924.771924372379,0,0
13614.5125,221.8523573688633,-8917.951519910917,0,0
13624.525,221.49546528136483,-8910.251926283878,0,0
13634.5375,222.16211646808108,-8904.240462894657,0,0
13644.55,223.5661013940868,-8896.903825221605,0,0
13654.5625,223.5468535716882,-8890.4952724604,0,0
13664.575,224.5044331184853,-8884.896097968645,0,0
13674.5875,225.67624397378222,-8878.54775800928,0,0
13684.6,225.8974417154417,-8872.237836182003,0,0
13694.6125,225.7696864557506,-8867.420771631969,0,0
13704.625,226.73240038294244,-8861.710470911125,0,0
13714.6375,227.17243619418548,-8856.738094162722,0,0
13724.65,226.60833564192066,-8850.983849233708,0,0
13734.6625,226.2852328112336,-8845.582661092178,0,0
13744.675,225.14521894283013,-8840.696761080022,0,0
13754.6875,223.95156638884896,-8835.161972213302,0,0
