Frequency (Hz),Impedance (ohms),Phase (Radians),Temperature (C),Humidity (%)
10000.0,4289.135558146521,-6436.095451496467,0,0
10010.0125,4283.880939826011,-6433.264692239707,0,0
10020.025,4278.580234285821,-6430.579646661889,0,0
10030.0375,4272.667109393288,-6427.701837647791,0,0
10040.05,4268.112530247836,-6425.0253023496025,0,0
10050.0625,4262.382636653087,-6422.0145404459245,0,0
10060.075,4257.453741578337,-6419.173441452661,0,0
10070.0875,4252.254176489471,-6416.421167523302,0,0
10080.1,4246.761509151224,-6413.947368131312,0,0
10090.1125,4241.3942001388505,-6411.307089308657,0,0
10100.125,4236.3045395833105,-6408.589275777795,0,0
10110.1375,4231.056222585767,-6406.1254213202565,0,0
10120.15,4225.735718803579,-6403.356074053553,0,0
10130.1625,4220.444524643914,-6400.435312155088,0,0
10140.175,4215.245366453763,-6397.883351345623,0,0
10150.1875,4209.949405100091,-6395.262319201181,0,0
10160.2,4204.635510425272,-6392.445869060791,0,0
10170.2125,4199.517393283435,-6389.633258641327,0,0
10180.225,4194.330909890935,-6387.088040313309,0,0
10190.2375,4189.242540487131,-6384.441699436063,0,0
10200.25,4184.050585258015,-6381.484103384916,0,0
10210.2625,4178.687643338743,-6378.879613044991,0,0
10220.275,4173.558505315329,-6376.3230868995615,0,0
10230.2875,4168.459734213031,-6373.669139240095,0,0
10240.3,4162.92639868606,-6370.874160414988,0,0
10250.3125,4158.00015545088,-6368.23235547595,0,0
10260.325,4152.712232927226,-6365.348555596228,0,0
10270.3375,4147.631446237614,-6362.519668110639,0,0
10280.35,4142.218161142947,-6360.113168837122,0,0
10290.3625,4137.42342949245,-6357.075827020867,0,0
10300.375,4131.796956118079,-6354.512215847148,0,0
10310.3875,4127.092642170765,-6351.798405035816,0,0
10320.4,4121.719450349766,-6348.95761500845,0,0
10330.4125,4116.630016829598,-6346.413815906872,0,0
10340.425,4111.435653228743,-6343.744287029298,0,0
10350.4375,4106.294021254307,-6340.83450691046,0,0
10360.45,4101.268432217901,-6338.1412178757155,0,0
10370.4625,4096.348037414996,-6335.176549818025,0,0
10380.475,4091.44351459852,-6332.73727045005,0,0
10390.4875,4086.3293144917357,-6329.906485105751,0,0
10400.5,4081.3942526228147,-6327.504277868928,0,0
10410.5125,4076.24437660762,-6324.65488902614,0,0
10420.525,4071.252868841891,-6321.574419702864,0,0
10430.5375,4066.093908477658,-6318.9549552417675,0,0
10440.55,4061.16991385199,-6316.142017343819,0,0
10450.5625,4056.1199232675167,-6313.235563258953,0,0
10460.575,4051.26113652624,-6310.9337601983,0,0
10470.5875,4045.7925409827135,-6307.809176961709,0,0
10480.6,4041.09248719442,-6305.24812694734,0,0
10490.6125,4036.2009214514837,-6302.435042651851,0,0
10500.625,4031.2197757791246,-6299.848031905349,0,0
10510.6375,4026.194454006744,-6296.997507204797,0,0
10520.65,4021.4385437198302,-6294.354667478543,0,0
10530.6625,4016.3718253812326,-6291.808437183811,0,0
10540.675,4011.4211129099967,-6289.041964107836,0,0
10550.6875,4006.7342738345133,-6285.949804230261,0,0
10560.7,4001.8316522740656,-6283.36631133763,0,0
10570.7125,3996.8138044149523,-6280.694622718141,0,0
10580.725,3991.947717312085,-6277.955103767973,0,0
10590.7375,3987.1172047901555,-6275.165539475943,0,0
10600.75,3982.3474524478215,-6272.317854724624,0,0
10610.7625,3977.2767690008463,-6269.823514743648,0,0
10620.775,3972.6223263695388,-6266.799122351341,0,0
10630.7875,3967.705698225409,-6264.22912541573,0,0
10640.8,3962.946294149525,-6261.547880313209,0,0
10650.8125,3958.3135031325273,-6258.760303931547,0,0
10660.825,3953.358280858787,-6255.889664574483,0,0
10670.8375,3948.491701942873,-6253.312647406844,0,0
10680.85,3943.9066491929116,-6250.453259839922,0,0
10690.8625,3939.108783365851,-6248.157638475985,0,0
10700.875,3934.261561935722,-6245.12009404847,0,0
10710.8875,3929.645079821534,-6242.290084752722,0,0
10720.9,3924.8466793229927,-6239.918345312543,0,0
10730.9125,3919.862799489838,-6237.153054096312,0,0
10740.925,3915.002978050778,-6234.524538672667,0,0
10750.9375,3910.3013931464843,-6231.825647191429,0,0
10760.95,3905.563218095457,-6228.7937252290885,0,0
10770.9625,3900.8184093449445,-6226.211134802475,0,0
10780.975,3896.087947002045,-6223.348375293894,0,0
10790.9875,3891.4272925428045,-6220.752380226034,0,0
10801.0,3886.7475730788683,-6218.087012447299,0,0
10811.0125,3882.0819985566295,-6215.352718037831,0,0
10821.025,3877.327276302236,-6212.561450831005,0,0
10831.0375,3872.2712745063345,-6209.827067586846,0,0
10841.05,3867.8680156901,-6206.947501812829,0,0
10851.0625,3863.3883876289406,-6204.395648258981,0,0
10861.075,3858.845883463577,-6201.499115492927,0,0
10871.0875,3853.86044322215,-6198.784091989761,0,0
10881.1,3849.555978897004,-6196.163022041884,0,0
10891.1125,3844.618981283308,-6193.328721412364,0,0
10901.125,3839.9649212115964,-6190.713936464055,0,0
10911.1375,3835.5514676297794,-6187.935577496311,0,0
10921.15,3830.6785992459,-6185.279819180072,0,0
10931.1625,3826.2654069705122,-6182.5594832365,0,0
10941.175,3821.5193670765157,-6179.732459964524,0,0
10951.1875,3817.076645444841,-6177.215680471746,0,0
10961.2,3812.380564408161,-6174.515551027432,0,0
10971.2125,3807.888900119644,-6171.397085934891,0,0
10981.225,3803.2335938536594,-6168.786606092287,0,0
10991.2375,3798.887586857603,-6165.9972788336245,0,0
11001.25,3794.106006929687,-6163.269533512424,0,0
11011.2625,3789.4687974259887,-6160.399039809022,0,0
11021.275,3785.3996212597017,-6157.841191685717,0,0
11031.2875,3780.99170126389,-6154.980154516245,0,0
11041.3,3776.2055917517337,-6152.0854706374375,0,0
11051.3125,3771.991741744015,-6149.303507368891,0,0
11061.325,3767.5693131438343,-6146.842783138892,0,0
11071.3375,3763.290626948674,-6144.040254885872,0,0
11081.35,3758.907297188012,-6141.382953161769,0,0
11091.3625,3754.3615554912717,-6138.867341138374,0,0
11101.375,3750.0613110051927,-6136.074302832569,0,0
11111.3875,3745.65831270125,-6133.238595331821,0,0
11121.4,3741.316454301957,-6130.821846796157,0,0
11131.4125,3737.0422738707157,-6127.975216337511,0,0
11141.425,3732.455484580886,-6125.72397277174,0,0
11151.4375,3727.857768765892,-6122.957505878597,0,0
11161.45,3723.413309028609,-6120.167695894433,0,0
11171.4625,3718.9949963517042,-6117.690477226166,0,0
11181.475,3714.45761793169,-6114.898915283536,0,0
11191.4875,3710.19738822707,-6112.446552048413,0,0
11201.5,3705.7217908105613,-6109.69491207351,0,0
11211.5125,3701.2138629944434,-6107.060585245137,0,0
11221.525,3696.9479902219664,-6104.1332993528895,0,0
11231.5375,3692.574044602964,-6101.485037201685,0,0
11241.55,3688.1298921003204,-6098.789578925596,0,0
11251.5625,3683.6496059145716,-6096.446664828719,0,0
11261.575,3679.3548407064063,-6093.227367483748,0,0
11271.5875,3675.2754530689713,-6090.752175434767,0,0
11281.6,3670.7281483131305,-6087.878819798309,0,0
11291.6125,3666.40962282464,-6085.214911028498,0,0
11301.625,3662.120064974408,-6082.649613379635,0,0
11311.6375,3657.6962547091466,-6080.091184841368,0,0
11321.65,3653.4276261763475,-6077.176064878139,0,0
11331.6625,3649.222247538487,-6074.294048854211,0,0
11341.675,3645.0789725560257,-6071.494662003691,0,0
11351.6875,3640.6475384739074,-6068.792515006247,0,0
11361.7,3636.494655741811,-6066.040798578858,0,0
11371.7125,3632.1894275755417,-6063.581180139286,0,0
11381.725,3627.7891266194097,-6060.806733517733,0,0
11391.7375,3623.693937052687,-6058.03237817012,0,0
11401.75,3619.3661385229643,-6055.590181048627,0,0
11411.7625,3615.014499029178,-6052.836758666692,0,0
11421.775,3610.928762678625,-6050.248775412325,0,0
11431.7875,3606.96851413843,-6047.284028834861,0,0
11441.8,3602.8984600824183,-6044.897285563501,0,0
11451.8125,3598.3880421078197,-6042.102260828453,0,0
11461.825,3594.3751506847093,-6039.295548389498,0,0
11471.8375,3590.23491417488,-6036.7340104774785,0,0
11481.85,3586.0342446683712,-6033.875689326578,0,0
11491.8625,3581.9247366292802,-6031.467784558566,0,0
11501.875,3577.8852633528804,-6028.762305143215,0,0
11511.8875,3573.6116768399042,-6026.146189936523,0,0
11521.9,3569.366021672154,-6023.5776021876645,0,0
11531.9125,3565.4565930406166,-6020.546691914178,0,0
11541.925,3561.2064451353444,-6018.2061908682645,0,0
11551.9375,3556.9244352010387,-6015.769465313599,0,0
11561.95,3552.8924117997694,-6013.132238224807,0,0
11571.9625,3548.7818841523645,-6010.075538541972,0,0
11581.975,3544.405834403279,-6007.7361207106915,0,0
11591.9875,3540.491748288986,-6004.834140044075,0,0
11602.0,3536.0171721087604,-6002.352699192585,0,0
11612.0125,3532.257460176627,-5999.690417931577,0,0
11622.025,3528.2496521165986,-5996.931064435235,0,0
11632.0375,3524.1026885452256,-5994.102218404194,0,0
11642.05,3519.823319615922,-5991.6717140940245,0,0
11652.0625,3515.8330132075685,-5989.019434744656,0,0
11662.075,3511.917613450571,-5986.428367252064,0,0
11672.0875,3507.925538805561,-5983.5680086639495,0,0
11682.1,3503.6184250245915,-5980.72712626822,0,0
11692.1125,3499.6913808799804,-5978.2191433498365,0,0
11702.125,3495.745323228121,-5975.410710134175,0,0
11712.1375,3491.6879177695937,-5972.662992363089,0,0
11722.15,3487.9325113489344,-5969.949089522374,0,0
11732.1625,3483.7591181370667,-5967.402529061148,0,0
11742.175,3479.685952825694,-5964.784049904171,0,0
11752.1875,3475.6146444578235,-5962.130098944914,0,0
11762.2,3471.7345830479267,-5959.3913324605355,0,0
11772.2125,3467.9360112790587,-5956.8362431926735,0,0
11782.225,3464.0092713098898,-5954.274054626769,0,0
11792.2375,3459.9896185515504,-5951.529332352504,0,0
11802.25,3455.9812968602137,-5949.381276870947,0,0
11812.2625,3451.6649531352773,-5946.490144409659,0,0
11822.275,3448.048998823877,-5943.680943814862,0,0
11832.2875,3443.9978978595923,-5941.494063744021,0,0
11842.3,3439.7287115101135,-5938.5289210984465,0,0
11852.3125,3436.058313840299,-5936.010177910339,0,0
11862.325,3432.0462806518,-5933.3947968981265,0,0
11872.3375,3427.951487619826,-5930.560989180427,0,0
11882.35,3424.3293494907775,-5927.969753041408,0,0
11892.3625,3420.200657841063,-5925.282306179117,0,0
11902.375,3416.141988016895,-5922.923398411276,0,0
11912.3875,3412.6072584537133,-5919.956885784068,0,0
11922.4,3408.24949109141,-5917.450239585517,0,0
11932.4125,3404.542096017138,-5915.007059351825,0,0
11942.425,3400.8325717208295,-5912.3363711061875,0,0
11952.4375,3396.660129575409,-5909.666223784837,0,0
11962.45,3393.1354664980563,-5907.035697534378,0,0
11972.4625,3389.210558888407,-5904.32708830242,0,0
11982.475,3385.239626759124,-5901.7391381087855,0,0
11992.4875,3381.256154580392,-5898.8336788906045,0,0
12002.5,3377.5650924586334,-5896.422759051232,0,0
12012.5125,3373.771875371987,-5893.7281046338285,0,0
12022.525,3369.861534340317,-5891.321030686713,0,0
12032.5375,3365.985115591982,-5888.436619360312,0,0
12042.55,3362.1944288272384,-5886.141128522842,0,0
12052.5625,3358.232643452737,-5883.268395760818,0,0
12062.575,3354.3834209354472,-5880.53205113307,0,0
12072.5875,3350.370022409185,-5877.780000355433,0,0
12082.6,3346.6437047401937,-5875.102498070778,0,0
12092.6125,3342.9586378691847,-5872.6268252636255,0,0
12102.625,3338.96225776416,-5869.8284197445955,0,0
12112.6375,3335.175444715124,-5867.25292951013,0,0
12122.65,3331.5184770166366,-5864.422876831139,0,0
12132.6625,3327.7524913702787,-5861.808587163351,0,0
12142.675,3323.963474685633,-5859.098931136433,0,0
12152.6875,3320.1680993554305,-5856.446563438287,0,0
12162.7,3316.470781905772,-5853.8430336936135,0,0
12172.7125,3312.9172730262203,-5851.156454622301,0,0
12182.725,3309.205257707027,-5848.525063433234,0,0
12192.7375,3305.6085490515775,-5845.475798397319,0,0
12202.75,3301.4224931968765,-5843.090177595443,0,0
12212.7625,3297.9759705441384,-5840.405056418419,0,0
12222.775,3294.153031000162,-5837.558061694284,0,0
12232.7875,3290.3725081748253,-5834.95971483405,0,0
12242.8,3286.9314375337735,-5832.631675776732,0,0
12252.8125,3283.531898888873,-5830.0497891225805,0,0
12262.825,3279.8472467731576,-5827.23563824935,0,0
12272.8375,3276.1938041298954,-5824.6039297871175,0,0
12282.85,3272.7029503944395,-5822.087010431199,0,0
12292.8625,3268.888280260444,-5819.233116578527,0,0
12302.875,3265.4341763459506,-5816.654433942094,0,0
12312.8875,3261.669969223295,-5814.096214007647,0,0
12322.9,3258.163036639024,-5811.563117178512,0,0
12332.9125,3254.3215150266174,-5809.018476124915,0,0
12342.925,3250.9330518138077,-5806.462231033496,0,0
12352.9375,3247.313546468582,-5804.190553687631,0,0
12362.95,3243.455235176964,-5801.562654783349,0,0
12372.9625,3239.743806150437,-5799.175219483243,0,0
12382.975,3236.147295173968,-5796.350019052597,0,0
12392.9875,3232.497760736232,-5793.641711427323,0,0
12403.0,3229.068136279569,-5791.172317298253,0,0
12413.0125,3225.2183093352633,-5788.774052869591,0,0
12423.025,3221.471798479699,-5785.794753781994,0,0
12433.0375,3218.030999333215,-5783.339038524218,0,0
12443.05,3214.306413121138,-5780.6631544259235,0,0
12453.0625,3210.790483272831,-5777.952228997565,0,0
12463.075,3207.1263944095203,-5775.3175292395035,0,0
12473.0875,3203.4128172155333,-5772.5423249783325,0,0
12483.1,3199.894179110834,-5770.459182852249,0,0
12493.1125,3196.5184008124907,-5767.325856786942,0,0
12503.125,3192.8091984320217,-5764.69917043381,0,0
12513.1375,3189.2937963801073,-5761.852507143361,0,0
12523.15,3185.5232737144233,-5758.969682763342,0,0
12533.1625,3182.1182458922494,-5756.436870524398,0,0
12543.175,3178.831828711517,-5753.606493377847,0,0
12553.1875,3175.4276149314787,-5750.674491485032,0,0
12563.2,3171.8741225763106,-5748.048945774865,0,0
12573.2125,3168.339627337502,-5745.33299932846,0,0
12583.225,3165.1796356029804,-5742.496277466523,0,0
12593.2375,3162.159646442032,-5739.600140126956,0,0
12603.25,3159.1529267298442,-5736.782318415882,0,0
12613.2625,3155.8839559009652,-5734.127815666208,0,0
12623.275,3152.964283303655,-5731.497621757395,0,0
12633.2875,3150.063357196173,-5728.9793312787115,0,0
12643.3,3146.917356588664,-5726.648581772596,0,0
12653.3125,3143.6484083160044,-5724.678451005776,0,0
12663.325,3140.3781564069373,-5722.506962161974,0,0
12673.3375,3136.86465838446,-5720.253957468797,0,0
12683.35,3133.5214285195225,-5717.812874181835,0,0
12693.3625,3129.9476208313627,-5715.789392438433,0,0
12703.375,3126.562573421852,-5713.4636146807325,0,0
12713.3875,3122.853255934685,-5710.977532398275,0,0
12723.4,3118.9932912682016,-5708.468658199159,0,0
12733.4125,3115.914051347089,-5705.736105975087,0,0
12743.425,3112.3922698887427,-5703.3519008123685,0,0
12753.4375,3108.8156974811213,-5700.604979852038,0,0
12763.45,3105.256844953886,-5698.141186256622,0,0
12773.4625,3101.9408897747603,-5695.494143289861,0,0
12783.475,3098.4987903120086,-5693.073065330911,0,0
12793.4875,3095.157187721819,-5690.269696491693,0,0
12803.5,3091.6933383240903,-5687.866958150106,0,0
12813.5125,3088.4045630964065,-5685.202077211726,0,0
12823.525,3085.078764671988,-5682.320069146085,0,0
12833.5375,3081.777346481216,-5679.7921220302715,0,0
12843.55,3078.435731817335,-5677.140811120543,0,0
12853.5625,3075.222090702926,-5674.495916709741,0,0
12863.575,3071.910998268199,-5671.873853548885,0,0
12873.5875,3068.7818189173613,-5669.194813754573,0,0
12883.6,3065.6264654768383,-5666.60583694131,0,0
12893.6125,3062.45647375252,-5663.946412393658,0,0
12903.625,3059.467187285992,-5661.511836232368,0,0
12913.6375,3056.167484997737,-5658.976139849109,0,0
12923.65,3053.1836843206274,-5656.685354549539,0,0
12933.6625,3050.0228596062684,-5653.958307071866,0,0
12943.675,3046.8975250557246,-5651.279998359995,0,0
12953.6875,3043.8344937037223,-5649.064564005507,0,0
12963.7,3040.6827489880316,-5646.492104302766,0,0
12973.7125,3037.7202359472203,-5644.164244261784,0,0
12983.725,3034.3497328124786,-5641.667274464198,0,0
12993.7375,3031.2300438825046,-5639.4808051402415,0,0
13003.75,3028.1171623439395,-5636.9160332032425,0,0
13013.7625,3025.120586769742,-5634.4178144149255,0,0
13023.775,3022.032475503302,-5632.207206309073,0,0
13033.7875,3018.8149391239585,-5629.695019724201,0,0
13043.8,3015.7942849757655,-5627.582011301695,0,0
13053.8125,3012.7228505333333,-5625.192452874432,0,0
13063.825,3009.420509672835,-5622.932631964777,0,0
13073.8375,3006.4012104401586,-5620.607970423167,0,0
13083.85,3003.1597976207067,-5618.463966215134,0,0
13093.8625,3000.0282804332737,-5616.1239489292275,0,0
13103.875,2996.6252037326585,-5613.930426227256,0,0
13113.8875,2993.336240901333,-5611.430277117923,0,0
13123.9,2989.963015175971,-5609.1434507442045,0,0
13133.9125,2987.094108681282,-5606.948766284508,0,0
13143.925,2983.6322472933684,-5604.517065559065,0,0
13153.9375,2980.5188427464727,-5601.859853505295,0,0
13163.95,2977.225872301235,-5599.742978474313,0,0
13173.9625,2973.8032117408507,-5597.272183359111,0,0
13183.975,2970.7341357511573,-5594.588090211727,0,0
13193.9875,2967.63799178121,-5592.530667187495,0,0
13204.0,2964.4984328051373,-5590.041709940827,0,0
13214.0125,2961.2811044554355,-5587.444868154098,0,0
13224.025,2958.3332645246664,-5585.061819234417,0,0
13234.0375,2954.9615421921408,-5582.671805617904,0,0
13244.05,2951.825637139071,-5580.275904902018,0,0
13254.0625,2948.7396425905717,-5578.138050837474,0,0
13264.075,2945.497444587009,-5575.814493769027,0,0
13274.0875,2942.3551379059722,-5573.430227927676,0,0
13284.1,2938.943358222825,-5571.271849635019,0,0
13294.1125,2935.6825957547926,-5568.660050466436,0,0
13304.125,2932.349426077772,-5566.328193258104,0,0
13314.1375,2929.5255732617543,-5564.0945089742,0,0
13324.15,2926.288510778717,-5561.506764182921,0,0
13334.1625,2922.9821537238886,-5559.006104607064,0,0
13344.175,2919.8932716967047,-5556.551152606517,0,0
13354.1875,2916.8183089905438,-5554.229928633437,0,0
13364.2,2913.298572885419,-5551.954969849601,0,0
13374.2125,2910.5215671367787,-5549.374809513863,0,0
13384.225,2907.308756952956,-5547.035544052134,0,0
13394.2375,2904.1521703895282,-5544.341716456275,0,0
13404.25,2900.8370543202923,-5542.164577208909,0,0
13414.2625,2897.7735915634157,-5539.6150131738295,0,0
13424.275,2894.274112102147,-5537.235400977375,0,0
13434.2875,2891.6710731299963,-5535.000101100675,0,0
13444.3,2888.297231282842,-5532.298599963974,0,0
13454.3125,2885.0789543029055,-5529.8971283934325,0,0
13464.325,2882.357778766599,-5527.465823345475,0,0
13474.3375,2879.2346173895107,-5525.133564045121,0,0
13484.35,2876.193843390396,-5522.282434291638,0,0
13494.3625,2872.784540351258,-5520.0028482167345,0,0
13504.375,2869.773000589767,-5517.389313900348,0,0
13514.3875,2866.815536550763,-5515.174776917279,0,0
13524.4,2863.9060501342065,-5512.730547218744,0,0
13534.4125,2860.7819091422753,-5510.1148645239,0,0
13544.425,2857.7136005217744,-5507.741830130325,0,0
13554.4375,2854.808168566436,-5505.656728553936,0,0
13564.45,2851.7020380279405,-5503.088899267474,0,0
13574.4625,2848.6311185791965,-5500.514476737778,0,0
13584.475,2845.490268487332,-5497.9989841290835,0,0
13594.4875,2842.5464385808386,-5495.237381565965,0,0
13604.5,2839.7780334187964,-5492.826687520794,0,0
13614.5125,2836.8206499084126,-5490.811577937061,0,0
13624.525,2833.432447379832,-5488.280331429855,0,0
13634.5375,2830.343771855799,-5485.732679968128,0,0
13644.55,2827.9098336125153,-5483.403436313773,0,0
13654.5625,2824.346433007052,-5481.389789200873,0,0
13664.575,2821.4731927731355,-5478.516082994989,0,0
13674.5875,2818.752741289055,-5476.190920854341,0,0
13684.6,2815.5364444563465,-5473.71131940384,0,0
13694.6125,2812.9444155108745,-5471.243220476632,0,0
13704.625,2809.4254490778444,-5469.208728510282,0,0
13714.6375,2806.9168483780104,-5466.310943207599,0,0
13724.65,2803.550482937245,-5464.064217896233,0,0
13734.6625,2800.984060412741,-5461.6258824496945,0,0
13744.675,2797.8247547653764,-5458.874380092071,0,0
13754.6875,2794.7147029889334,-5456.723190009922,0,0
13764.7,2792.244171924311,-5454.609288067239,0,0
13774.7125,2789.3327072483585,-5451.9184147513,0,0
