Frequency (Hz),Impedance (ohms),Phase (Radians),Temperature (C),Humidity (%)
10000.0,4155.1643009393,-6667.527037602836,0,0
10010.0125,4149.825671166157,-6664.083029098081,0,0
10020.025,4144.335184684016,-6661.205039466748,0,0
10030.0375,4139.1156826953265,-6657.738898717562,0,0
10040.05,4133.892130561535,-6654.606167966426,0,0
10050.0625,4128.851952188548,-6651.623751974666,0,0
10060.075,4123.454414956215,-6648.46511439581,0,0
10070.0875,4117.9893272534755,-6645.552825136991,0,0
10080.1,4112.491653453041,-6642.4159700865175,0,0
10090.1125,4106.914639742383,-6639.120906856307,0,0
10100.125,4101.963858277582,-6635.710183860626,0,0
10110.1375,4096.540901368216,-6632.988075260846,0,0
10120.15,4091.245862019751,-6629.834647432345,0,0
10130.1625,4086.0156096508254,-6626.449290686686,0,0
10140.175,4080.7508532644197,-6623.548202218515,0,0
10150.1875,4075.4400304899027,-6619.949069939181,0,0
10160.2,4069.889433139924,-6617.030106194537,0,0
10170.2125,4064.575586766841,-6613.682670458583,0,0
10180.225,4059.807818089979,-6611.00789623465,0,0
10190.2375,4054.4710834555776,-6607.377027437976,0,0
10200.25,4049.0736706447633,-6604.385358742175,0,0
10210.2625,4043.950380395434,-6601.216188668577,0,0
10220.275,4038.5620597791194,-6597.98918169146,0,0
10230.2875,4033.588213022496,-6595.0443133566405,0,0
10240.3,4028.2603473338254,-6591.918462440781,0,0
10250.3125,4022.7857575688995,-6588.713320274551,0,0
10260.325,4017.75581173482,-6585.699412420394,0,0
10270.3375,4012.773444891738,-6582.460864692601,0,0
10280.35,4007.46884878748,-6579.309320180174,0,0
10290.3625,4002.2390162564034,-6576.021999841796,0,0
10300.375,3997.086924502509,-6572.802336753584,0,0
10310.3875,3991.9258800426614,-6569.584226978849,0,0
10320.4,3986.916783417406,-6566.598678299206,0,0
10330.4125,3981.7731522294093,-6563.522924686165,0,0
10340.425,3976.6360233381047,-6560.423846648981,0,0
10350.4375,3971.4272107543293,-6557.036324564897,0,0
10360.45,3966.3418982956323,-6554.054605026326,0,0
10370.4625,3961.283921352062,-6550.860107347185,0,0
10380.475,3956.34182110702,-6547.599255538908,0,0
10390.4875,3951.4684520312667,-6544.5793080928315,0,0
10400.5,3946.105236594106,-6541.515359462568,0,0
10410.5125,3941.2199974640744,-6538.1357079843865,0,0
10420.525,3936.254240523788,-6535.260558742593,0,0
10430.5375,3931.0093737103675,-6532.016547046708,0,0
10440.55,3925.900357190649,-6528.972397408316,0,0
10450.5625,3921.1407808847216,-6525.7900673752865,0,0
10460.575,3916.073209621868,-6522.776208184698,0,0
10470.5875,3911.0904624608543,-6519.4097663036855,0,0
10480.6,3906.1362023842444,-6516.226146026907,0,0
10490.6125,3901.2274959347183,-6513.298525504379,0,0
10500.625,3896.2385918752198,-6510.001575272746,0,0
10510.6375,3891.239325493745,-6506.874317425257,0,0
10520.65,3886.2945501420313,-6503.805832049672,0,0
10530.6625,3881.503000294595,-6500.915467537002,0,0
10540.675,3876.3735609454156,-6497.570497623419,0,0
10550.6875,3871.474481216312,-6494.511035088565,0,0
10560.7,3866.7998871488135,-6491.119432059332,0,0
10570.7125,3861.702140511457,-6488.470177660702,0,0
10580.725,3857.0639204362906,-6485.133435662545,0,0
10590.7375,3852.0988720553214,-6481.909708351123,0,0
10600.75,3847.456066892249,-6478.800138677768,0,0
10610.7625,3842.449899278269,-6475.637408466786,0,0
10620.775,3837.709997404284,-6472.502702606394,0,0
10630.7875,3832.778982272857,-6469.396225524197,0,0
10640.8,3827.750039054633,-6466.397770557002,0,0
10650.8125,3823.0046946144107,-6463.428721195715,0,0
10660.825,3818.331439731058,-6460.191216641182,0,0
10670.8375,3813.6129116341576,-6457.255798035554,0,0
10680.85,3808.802710668853,-6453.861599693826,0,0
10690.8625,3804.110940516176,-6450.889873200248,0,0
10700.875,3799.4246546343425,-6447.933047648327,0,0
10710.8875,3794.597986039484,-6444.879610891296,0,0
10720.9,3789.846620410313,-6441.780296638112,0,0
10730.9125,3785.107503056765,-6438.631964953231,0,0
10740.925,3780.222923573742,-6435.500515782982,0,0
10750.9375,3775.4939743385858,-6432.314570112794,0,0
10760.95,3770.841937419503,-6429.164280765216,0,0
10770.9625,3765.8940990842943,-6426.1343741963865,0,0
10780.975,3761.4077740185194,-6423.045036923627,0,0
10790.9875,3756.5004802691305,-6420.117108138221,0,0
10801.0,3751.8645120679466,-6416.816189451777,0,0
10811.0125,3747.1649827026895,-6413.957415160987,0,0
10821.025,3742.301884925499,-6410.419290271285,0,0
10831.0375,3737.8666781511283,-6407.493767803748,0,0
10841.05,3733.1456562000117,-6404.358822129471,0,0
10851.0625,3728.5586227233703,-6401.411219093557,0,0
10861.075,3723.6958727529513,-6398.164851952317,0,0
10871.0875,3719.1830532288423,-6394.8873309076,0,0
10881.1,3714.55557610327,-6392.084983547747,0,0
10891.1125,3709.9588491449877,-6388.813812557835,0,0
10901.125,3705.203542270472,-6385.972299107911,0,0
10911.1375,3700.715932779058,-6382.657037567783,0,0
10921.15,3696.0208018018284,-6379.729926319483,0,0
10931.1625,3691.503430131543,-6376.672893161951,0,0
10941.175,3687.105350127959,-6373.370904139098,0,0
10951.1875,3682.300940504503,-6370.327037270102,0,0
10961.2,3677.593637925665,-6367.304826123609,0,0
10971.2125,3673.318295509036,-6364.14668038093,0,0
10981.225,3668.6326670536873,-6361.033511499763,0,0
10991.2375,3664.141299619936,-6357.741537273764,0,0
11001.25,3659.643572182382,-6354.616130059219,0,0
11011.2625,3655.0077228382493,-6351.571602168727,0,0
11021.275,3650.677502817811,-6348.555365664484,0,0
11031.2875,3646.143402945803,-6345.513881480933,0,0
11041.3,3641.7012800036964,-6342.382426106542,0,0
11051.3125,3637.446349153875,-6339.164455957526,0,0
11061.325,3632.918651722911,-6336.32118861033,0,0
11071.3375,3628.6545846517065,-6333.182227912297,0,0
11081.35,3624.0757154986154,-6330.162235252493,0,0
11091.3625,3619.562434689205,-6327.086349064236,0,0
11101.375,3615.163135099858,-6323.910348998443,0,0
11111.3875,3610.829994481826,-6320.878069535239,0,0
11121.4,3606.4214192200493,-6317.915568884413,0,0
11131.4125,3602.1662801478546,-6314.938374635293,0,0
11141.425,3597.549152535318,-6311.755012061078,0,0
11151.4375,3593.303024435852,-6308.818604424896,0,0
11161.45,3588.90468481467,-6306.046560627328,0,0
11171.4625,3584.527650195724,-6302.768547639938,0,0
11181.475,3579.996977849237,-6299.807274371138,0,0
11191.4875,3575.69353362489,-6297.073436064375,0,0
11201.5,3571.3144205148365,-6293.856982973751,0,0
11211.5125,3566.7505213834806,-6290.549391111676,0,0
11221.525,3562.4331713556717,-6287.775694740357,0,0
11231.5375,3558.1347717440703,-6284.531469426343,0,0
11241.55,3553.6673152474973,-6281.8487566827125,0,0
11251.5625,3549.276048130701,-6278.584587496541,0,0
11261.575,3545.1327307691727,-6275.675748052517,0,0
11271.5875,3540.668376838017,-6272.438532497347,0,0
11281.6,3536.4077745142886,-6269.544623378478,0,0
11291.6125,3531.911940090669,-6266.432597345849,0,0
11301.625,3527.8918428684906,-6263.232574338824,0,0
11311.6375,3523.710073231093,-6260.276476799981,0,0
11321.65,3519.2967525282584,-6257.3070978580745,0,0
11331.6625,3515.090517529609,-6254.201388247767,0,0
11341.675,3510.7098585526533,-6251.381973298732,0,0
11351.6875,3506.4782096906233,-6248.325452050378,0,0
11361.7,3502.1533257771193,-6244.936559562194,0,0
11371.7125,3498.0693053383775,-6242.241582536781,0,0
11381.725,3493.8099362413805,-6239.089601615476,0,0
11391.7375,3489.608921020439,-6235.931962905832,0,0
11401.75,3485.398247054295,-6233.219812276015,0,0
11411.7625,3481.083474029715,-6230.166733417237,0,0
11421.775,3477.086445176837,-6227.020822761794,0,0
11431.7875,3472.8657652245693,-6224.164114406038,0,0
11441.8,3468.4260192207385,-6221.038381710181,0,0
11451.8125,3464.3669426249803,-6217.973856798488,0,0
11461.825,3460.372642395928,-6214.939836565486,0,0
11471.8375,3456.232641952641,-6211.976909806278,0,0
11481.85,3451.9285876609038,-6208.853278800515,0,0
11491.8625,3448.0660669048702,-6205.820408791288,0,0
11501.875,3443.8421228458624,-6202.83206469263,0,0
11511.8875,3439.7850642817507,-6199.950718331573,0,0
11521.9,3435.3944145799587,-6197.11092796684,0,0
11531.9125,3431.3829277865784,-6193.927310224212,0,0
11541.925,3427.2931211610166,-6190.877998703296,0,0
11551.9375,3423.2324337787395,-6187.967848706899,0,0
11561.95,3419.1353848844437,-6185.001135878577,0,0
11571.9625,3415.0782128269416,-6182.1327671986355,0,0
11581.975,3410.985896248978,-6179.089593719498,0,0
11591.9875,3407.0553694501227,-6175.947306060635,0,0
11602.0,3403.058376888034,-6173.257412827163,0,0
11612.0125,3398.667011392151,-6170.31219174842,0,0
11622.025,3394.7598187525277,-6167.212493806521,0,0
11632.0375,3390.5691876917663,-6164.400171527095,0,0
11642.05,3386.488911330918,-6161.3493845000885,0,0
11652.0625,3382.6641423551564,-6158.405490049785,0,0
11662.075,3378.473024882097,-6155.002127557808,0,0
11672.0875,3374.396594916774,-6152.325304998714,0,0
11682.1,3370.5063887698175,-6148.999843950351,0,0
11692.1125,3366.5283083590416,-6146.251317443588,0,0
11702.125,3362.5844138958882,-6143.258949266607,0,0
11712.1375,3358.6247164797314,-6140.261650952212,0,0
11722.15,3354.5519110920595,-6137.242338809841,0,0
11732.1625,3350.5130116497317,-6134.328359883307,0,0
11742.175,3346.8563406991157,-6131.5006299427505,0,0
11752.1875,3342.884545480767,-6128.456935631887,0,0
11762.2,3338.8381646861353,-6125.4070205708385,0,0
11772.2125,3334.90718172041,-6122.265920501123,0,0
11782.225,3331.106176752265,-6119.370560665462,0,0
11792.2375,3326.9524164174995,-6116.459492781671,0,0
11802.25,3323.126682906685,-6113.592090025408,0,0
11812.2625,3319.227574954704,-6110.49351854736,0,0
11822.275,3315.4126529303753,-6107.637183014686,0,0
11832.2875,3311.766030670259,-6104.810534616467,0,0
11842.3,3307.5221605051497,-6101.8740862089335,0,0
11852.3125,3303.5206592590052,-6099.026631353767,0,0
11862.325,3299.665373037947,-6096.020618661361,0,0
11872.3375,3295.8818047823243,-6092.966078458093,0,0
11882.35,3292.226141912904,-6090.089835335807,0,0
11892.3625,3288.1353452785597,-6087.446225600746,0,0
11902.375,3284.177616055691,-6084.379655389995,0,0
11912.3875,3280.488825370466,-6081.556252079994,0,0
11922.4,3276.4934044998436,-6078.742203428268,0,0
11932.4125,3272.4934701878574,-6075.750061417731,0,0
11942.425,3268.623425557159,-6072.570213924208,0,0
11952.4375,3264.9196502118793,-6069.781151168683,0,0
11962.45,3261.1198918626333,-6066.510324806316,0,0
11972.4625,3257.0669566247043,-6063.892865789998,0,0
11982.475,3253.375545352316,-6060.902365201386,0,0
11992.4875,3249.4749185886185,-6058.016233885853,0,0
12002.5,3245.689137306639,-6055.30961383014,0,0
12012.5125,3241.9949209848014,-6052.155917194987,0,0
12022.525,3237.8359461444043,-6049.315714429233,0,0
12032.5375,3234.175247468099,-6046.344044169504,0,0
12042.55,3230.464846482125,-6043.539720703096,0,0
12052.5625,3226.59223141943,-6040.638309524401,0,0
12062.575,3222.8473918025447,-6037.544694801364,0,0
12072.5875,3219.1203379897192,-6034.692146504685,0,0
12082.6,3215.3624777565788,-6031.623134439756,0,0
12092.6125,3211.6329835309343,-6028.782127529428,0,0
12102.625,3207.7792652429093,-6025.637637281813,0,0
12112.6375,3204.064660314477,-6022.648645937087,0,0
12122.65,3200.293934287103,-6019.7841027698105,0,0
12132.6625,3196.6181479674965,-6016.8561733623255,0,0
12142.675,3192.9231563647077,-6013.860991776601,0,0
12152.6875,3189.3439678985856,-6011.208019486155,0,0
12162.7,3185.447593348064,-6008.105004647463,0,0
12172.7125,3181.8993108346826,-6005.215478543751,0,0
12182.725,3178.2718404937214,-6002.21076957975,0,0
12192.7375,3174.848199048567,-5999.182902596349,0,0
12202.75,3171.0376093704976,-5996.330942863379,0,0
12212.7625,3167.1594736919824,-5993.439085860366,0,0
12222.775,3163.5971376863718,-5990.379928166866,0,0
12232.7875,3160.1397426022854,-5987.702690537987,0,0
12242.8,3156.645320839512,-5984.866492180888,0,0
12252.8125,3152.810559256269,-5981.946979209212,0,0
12262.825,3149.3228100420715,-5979.098447362053,0,0
12272.8375,3145.9871471400306,-5975.857740685667,0,0
12282.85,3142.182714722271,-5973.254933899072,0,0
12292.8625,3138.5661626206647,-5970.534293016234,0,0
12302.875,3135.0296578654625,-5967.784274711899,0,0
12312.8875,3131.4324871620206,-5964.915070425693,0,0
12322.9,3127.7826985917254,-5962.124169441912,0,0
12332.9125,3124.0376249442706,-5959.183689207816,0,0
12342.925,3120.6063403127014,-5956.549544771815,0,0
12352.9375,3116.865318214794,-5953.420976221253,0,0
12362.95,3113.4913068932633,-5950.606919011558,0,0
12372.9625,3109.6276862651494,-5947.933608747487,0,0
12382.975,3105.9725783040317,-5944.772116774348,0,0
12392.9875,3102.702703859006,-5942.076081051661,0,0
12403.0,3098.8505173605663,-5938.827552274067,0,0
12413.0125,3095.438927131058,-5936.226640453264,0,0
12423.025,3091.7671152065864,-5933.208135406143,0,0
12433.0375,3088.1902795628216,-5930.464220301598,0,0
12443.05,3084.7935134607073,-5927.426716049126,0,0
12453.0625,3081.1847465875685,-5924.433354610093,0,0
12463.075,3077.432200799911,-5921.713331870245,0,0
12473.0875,3073.9473409379825,-5919.0131033262205,0,0
12483.1,3070.3898563095972,-5915.844927380237,0,0
12493.1125,3067.090562523572,-5912.870594976907,0,0
12503.125,3063.434005814628,-5910.050111183779,0,0
12513.1375,3059.9825549109282,-5907.044717487667,0,0
12523.15,3056.29377850423,-5903.829477126416,0,0
12533.1625,3052.8709079730916,-5901.126987084293,0,0
12543.175,3049.569064392712,-5898.113576892593,0,0
12553.1875,3045.9482962146635,-5895.012541471546,0,0
12563.2,3042.6305067789585,-5891.8928863405135,0,0
12573.2125,3039.2324056084526,-5888.994847212529,0,0
12583.225,3036.098937791303,-5885.793236116826,0,0
12593.2375,3032.863232304935,-5883.009246906023,0,0
12603.25,3029.8200707949604,-5880.016845135336,0,0
12613.2625,3026.6614039111596,-5877.1111825945545,0,0
12623.275,3023.5366323543917,-5874.282389291448,0,0
12633.2875,3020.6068686210297,-5871.486450267761,0,0
12643.3,3017.2703444494186,-5868.849788110862,0,0
12653.3125,3014.1955430274047,-5866.20567218451,0,0
12663.325,3011.1586480415212,-5863.927028732811,0,0
12673.3375,3007.6575214805457,-5861.294681315232,0,0
12683.35,3004.489059562335,-5858.7387916052085,0,0
12693.3625,3000.9194576207133,-5856.024153693852,0,0
12703.375,2997.3748696912985,-5853.697265143146,0,0
12713.3875,2993.9137655780582,-5850.81967470835,0,0
12723.4,2990.6009017110114,-5847.997149359911,0,0
12733.4125,2987.203505137215,-5845.408074199813,0,0
12743.425,2983.5560342928734,-5842.495926042805,0,0
12753.4375,2980.49146564741,-5839.675877568924,0,0
12763.45,2976.968936616313,-5836.891821242132,0,0
12773.4625,2973.6217576283607,-5834.105550111589,0,0
12783.475,2970.4295583286084,-5831.1583265745685,0,0
12793.4875,2967.1230337629877,-5828.375810865806,0,0
12803.5,2963.5002102222347,-5825.714575493679,0,0
12813.5125,2960.277744433502,-5822.758193973509,0,0
12823.525,2956.8792063684136,-5820.035336848455,0,0
12833.5375,2953.915839463981,-5817.041909978778,0,0
12843.55,2950.627757025392,-5814.1122162947,0,0
12853.5625,2947.2461076634054,-5811.251366824988,0,0
12863.575,2943.8265005960516,-5808.498940561048,0,0
12873.5875,2940.7689036638562,-5805.270560654922,0,0
12883.6,2937.463982993937,-5802.132291872912,0,0
12893.6125,2934.419043194382,-5799.563406654151,0,0
12903.625,2930.998614699143,-5796.898825198782,0,0
12913.6375,2927.9767949105717,-5794.00410232343,0,0
12923.65,2924.7098705496373,-5791.589602637468,0,0
12933.6625,2921.588162842473,-5788.555342911406,0,0
12943.675,2918.4843799112573,-5785.978115728797,0,0
12953.6875,2915.260036819397,-5782.99931295757,0,0
12963.7,2912.293731600843,-5780.161053702065,0,0
12973.7125,2909.322119348768,-5777.368786698918,0,0
12983.725,2906.3850119100634,-5774.782484049844,0,0
12993.7375,2902.8969602232955,-5772.285399499688,0,0
13003.75,2900.154076670596,-5769.238444990207,0,0
13013.7625,2896.662280530735,-5766.703771411844,0,0
13023.775,2893.6688520049947,-5764.0483402337095,0,0
13033.7875,2890.6287533211644,-5761.737427211897,0,0
13043.8,2887.6470415108734,-5759.248937969295,0,0
13053.8125,2884.153957270122,-5756.572692086985,0,0
13063.825,2880.931476547721,-5753.946269985417,0,0
13073.8375,2877.9138282549306,-5751.205867715936,0,0
13083.85,2874.7771958611684,-5748.528928606201,0,0
13093.8625,2871.669515670804,-5745.807538228325,0,0
13103.875,2868.4788791569335,-5742.936139624276,0,0
13113.8875,2865.1854550573066,-5740.317539073031,0,0
13123.9,2862.4197302234493,-5737.693049082734,0,0
13133.9125,2859.17409709617,-5735.259363732375,0,0
13143.925,2855.9627250694584,-5732.515654475716,0,0
13153.9375,2852.8175960455064,-5729.625092952026,0,0
13163.95,2849.7085255143274,-5726.988176429292,0,0
13173.9625,2846.4805930250814,-5724.393576728734,0,0
13183.975,2843.7080812237714,-5721.43011160754,0,0
13193.9875,2840.3651647677575,-5719.288999093836,0,0
13204.0,2837.2904106141436,-5716.103535601417,0,0
13214.0125,2834.746789546156,-5713.64462648032,0,0
13224.025,2831.829389232462,-5710.9237978761175,0,0
13234.0375,2828.7362707886136,-5708.478903923203,0,0
13244.05,2825.6865628741693,-5705.803087259017,0,0
13254.0625,2822.445640844483,-5703.148018740895,0,0
13264.075,2819.473386456556,-5700.920328265728,0,0
13274.0875,2816.496368892385,-5698.340932205021,0,0
13284.1,2813.242858602824,-5695.594041659609,0,0
13294.1125,2810.0987855663852,-5693.195381945355,0,0
13304.125,2807.185249907826,-5690.225961360983,0,0
13314.1375,2803.948115481763,-5688.025783149299,0,0
13324.15,2800.8768443349722,-5685.294980958312,0,0
13334.1625,2797.8356751287356,-5682.82722981887,0,0
13344.175,2794.6232173488947,-5679.792204143067,0,0
13354.1875,2791.4816660534566,-5677.316870067598,0,0
13364.2,2788.5817103594745,-5674.889907833812,0,0
13374.2125,2785.5050899681855,-5672.050795170839,0,0
13384.225,2782.138502450927,-5669.259084494324,0,0
13394.2375,2779.231086549604,-5666.849464022339,0,0
13404.25,2776.1012539213225,-5664.341034532843,0,0
13414.2625,2773.4492820787063,-5661.626454235692,0,0
13424.275,2770.206216863819,-5658.887083016932,0,0
13434.2875,2767.223874801104,-5655.903297073371,0,0
13444.3,2764.339149484462,-5653.15423452734,0,0
13454.3125,2761.1940655259978,-5650.583048819022,0,0
13464.325,2758.1493923669896,-5647.987845459242,0,0
13474.3375,2754.9015843846696,-5645.404501219609,0,0
13484.35,2752.132619753508,-5642.726740448183,0,0
13494.3625,2749.1614047285802,-5640.154606179593,0,0
13504.375,2746.3739545114245,-5637.858072318476,0,0
13514.3875,2743.2587988634828,-5635.161529630254,0,0
13524.4,2740.079498425398,-5632.835097485289,0,0
13534.4125,2736.784667795956,-5629.946853623856,0,0
13544.425,2734.068803812389,-5627.091262952109,0,0
13554.4375,2731.2258871671625,-5624.646481461603,0,0
13564.45,2727.93486415017,-5622.195424213982,0,0
13574.4625,2724.9338085134577,-5619.276581054035,0,0
13584.475,2722.29728198606,-5616.725052653285,0,0
13594.4875,2718.925947394199,-5614.3587815494,0,0
13604.5,2716.55856698937,-5611.493604527295,0,0
13614.5125,2713.2470707791344,-5608.962771512181,0,0
13624.525,2710.4268690388153,-5605.933642376635,0,0
13634.5375,2707.3649110797014,-5603.7994644829005,0,0
13644.55,2704.80042038473,-5601.1265457777445,0,0
13654.5625,2701.625029984024,-5598.091810487382,0,0
13664.575,2698.381125526618,-5595.72321194682,0,0
13674.5875,2695.8806740631317,-5593.26123497093,0,0
13684.6,2693.050867790123,-5590.295933099951,0,0
13694.6125,2689.89939516877,-5587.672748412965,0,0
13704.625,2686.9093046844823,-5585.433264986406,0,0
13714.6375,2684.1299015871505,-5582.499672718192,0,0
13724.65,2681.511774730164,-5579.897186531918,0,0
13734.6625,2678.5587387975775,-5577.157109417317,0,0
13744.675,2675.815038659442,-5574.429796282664,0,0
13754.6875,2672.7125126258943,-5572.085487423767,0,0
13764.7,2669.863756350548,-5569.378799947946,0,0
13774.7125,2666.9901186048633,-5566.755624380405,0,0
