Frequency (Hz),Impedance (ohms),Phase (Radians),Temperature (C),Humidity (%)
10000.0,276.06353537889566,-12089.134759508794,0,0
10010.0125,276.00003461388934,-12076.744575853018,0,0
10020.025,275.78231492001873,-12064.273511640655,0,0
10030.0375,275.0919456683446,-12051.58275464903,0,0
10040.05,274.73405255706655,-12039.184629811969,0,0
10050.0625,274.37177362079996,-12026.795939837455,0,0
10060.075,274.4241070945663,-12013.677153105768,0,0
10070.0875,275.0606429156419,-12001.406173989872,0,0
10080.1,275.52569132067345,-11988.776783139501,0,0
10090.1125,275.89427678017375,-11975.690594665804,0,0
10100.125,276.74737107148616,-11962.836761731372,0,0
10110.1375,277.83807826451437,-11951.097777797344,0,0
10120.15,279.3970410755946,-11939.353966894712,0,0
10130.1625,281.43542274101435,-11927.16571859439,0,0
10140.175,283.50706759588076,-11915.606418965745,0,0
10150.1875,285.3744353949266,-11905.147262547707,0,0
10160.2,287.37436111944925,-11895.189747870121,0,0
10170.2125,289.29462183665333,-11885.896799701726,0,0
10180.225,290.216627728483,-11877.291256214068,0,0
10190.2375,290.6617837983474,-11869.275505064954,0,0
10200.25,289.41983310268364,-11861.44959660646,0,0
10210.2625,287.3282165162863,-11853.069438831042,0,0
10220.275,284.8975742970539,-11844.116286487444,0,0
10230.2875,281.4296520104233,-11833.424352065664,0,0
10240.3,278.62888422013816,-11822.443619084279,0,0
10250.3125,276.52758293223616,-11810.676386559968,0,0
10260.325,274.57995294116535,-11798.888135208932,0,0
10270.3375,272.80318457152634,-11787.008517932387,0,0
10280.35,271.2767699244761,-11774.428175383886,0,0
10290.3625,270.19006044857485,-11762.72333404479,0,0
10300.375,269.474573436005,-11750.650977304902,0,0
10310.3875,268.427954877698,-11738.795588960851,0,0
10320.4,267.90264292791505,-11727.306259886447,0,0
10330.4125,267.3179686290673,-11715.326984385005,0,0
10340.425,266.84845321946955,-11703.611474527906,0,0
10350.4375,266.29714225074775,-11691.39108225943,0,0
10360.45,265.31519232605825,-11680.121720362957,0,0
10370.4625,265.14932045002206,-11668.840645018952,0,0
10380.475,264.15202140671414,-11657.008290902093,0,0
10390.4875,264.156340763951,-11645.589013056238,0,0
10400.5,263.6083560176267,-11634.033985438382,0,0
10410.5125,263.1306576066055,-11622.260872400007,0,0
10420.525,262.79168165639356,-11611.382821492836,0,0
10430.5375,262.5317877594925,-11599.960774207948,0,0
10440.55,262.3041184840794,-11588.544798013467,0,0
10450.5625,262.1267792728987,-11577.314811398655,0,0
10460.575,261.42181025023314,-11565.767821218153,0,0
10470.5875,261.32162773826303,-11554.755321512068,0,0
10480.6,260.8949423788205,-11543.403272586394,0,0
10490.6125,260.6692829304772,-11532.123408253601,0,0
10500.625,259.9305484194151,-11520.872332788324,0,0
10510.6375,260.1296081383553,-11509.957384581185,0,0
10520.65,259.71871773627714,-11498.80825869525,0,0
10530.6625,259.38187014019553,-11487.636028609939,0,0
10540.675,259.07272282824897,-11476.451352590178,0,0
10550.6875,259.08988016417896,-11465.716051248077,0,0
10560.7,258.58545126739364,-11454.760008167741,0,0
10570.7125,258.62726302499516,-11443.785872726703,0,0
10580.725,258.4147976582665,-11432.836370920379,0,0
10590.7375,257.78631249779403,-11421.545667196104,0,0
10600.75,257.69623073726314,-11410.852631243246,0,0
10610.7625,257.3937194354632,-11399.963344298301,0,0
10620.775,257.39850031301455,-11388.667187705483,0,0
10630.7875,257.29650131547965,-11378.221935497808,0,0
10640.8,256.9296730548438,-11367.270697527594,0,0
10650.8125,256.7335113692754,-11356.564052942305,0,0
10660.825,256.64782282497646,-11345.859087070847,0,0
10670.8375,256.3929605644641,-11334.951630170437,0,0
10680.85,255.80881636563507,-11324.271199927824,0,0
10690.8625,255.80722114759575,-11313.45521914235,0,0
10700.875,255.49398986124143,-11302.86618473789,0,0
10710.8875,255.43162469407488,-11291.60901066693,0,0
10720.9,255.13614502594635,-11281.425814039176,0,0
10730.9125,254.97956633731334,-11270.409767685327,0,0
10740.925,254.8410067730346,-11259.813011908347,0,0
10750.9375,254.73332601699153,-11249.225087228295,0,0
10760.95,254.50008723995893,-11238.564169858384,0,0
10770.9625,254.33133350425211,-11228.12581131373,0,0
10780.975,254.30755287999017,-11217.640531937863,0,0
10790.9875,253.5303907693248,-11207.17096789373,0,0
10801.0,253.435136759072,-11196.142030283514,0,0
10811.0125,253.70397968936282,-11185.915007793024,0,0
10821.025,253.58944229109065,-11175.394904141533,0,0
10831.0375,253.17576573498863,-11165.036512220397,0,0
10841.05,253.15584646414965,-11153.92601602964,0,0
10851.0625,253.41987919594894,-11144.152687516726,0,0
10861.075,253.17576351729983,-11133.348771336483,0,0
10871.0875,253.2331798946605,-11123.17336913025,0,0
10881.1,252.9264740197919,-11112.862156031,0,0
10891.1125,252.7473066029574,-11102.57875571081,0,0
10901.125,252.6183295944258,-11092.48956797682,0,0
10911.1375,252.49551621451803,-11082.032300140396,0,0
10921.15,252.24755018988955,-11071.87062921625,0,0
10931.1625,252.11026789756318,-11061.407744179716,0,0
10941.175,252.3668935739175,-11050.903771189061,0,0
10951.1875,251.82395288576188,-11040.805468482109,0,0
10961.2,251.82683622307016,-11030.942976837618,0,0
10971.2125,251.536249831616,-11020.782619829008,0,0
10981.225,251.68747417160225,-11010.4012888967,0,0
10991.2375,251.39455743285598,-11000.108962344317,0,0
11001.25,251.62461185260457,-10990.130744693837,0,0
11011.2625,251.26208545506634,-10979.944183861386,0,0
11021.275,251.75770894173363,-10969.899748885413,0,0
11031.2875,251.28765870829676,-10959.792306703728,0,0
11041.3,251.55527556161152,-10950.084178660945,0,0
11051.3125,251.1064649606254,-10940.019623133676,0,0
11061.325,251.07761312988742,-10929.739321015191,0,0
11071.3375,251.29171118782008,-10919.917506332054,0,0
11081.35,250.88619801555765,-10909.86419310985,0,0
11091.3625,250.99561871197787,-10899.994055456344,0,0
11101.375,250.89801599204722,-10890.081173391836,0,0
11111.3875,250.64800661835886,-10880.084199975521,0,0
11121.4,250.46808698640032,-10870.280717868909,0,0
11131.4125,250.36208554422043,-10860.545035683599,0,0
11141.425,250.26466840833533,-10850.715878930681,0,0
11151.4375,250.300640361077,-10840.723010759943,0,0
11161.45,250.14067992259052,-10831.034845404562,0,0
11171.4625,249.42529614439098,-10821.102080196633,0,0
11181.475,249.54215991422487,-10811.120796066974,0,0
11191.4875,249.5347716008271,-10801.435930037416,0,0
11201.5,249.39342911303007,-10791.644877470359,0,0
11211.5125,249.0772723586574,-10781.889989642685,0,0
11221.525,248.93834218538603,-10771.86466515581,0,0
11231.5375,248.91491284659799,-10761.975464575617,0,0
11241.55,248.74841368176612,-10751.940961366605,0,0
11251.5625,249.15879347908205,-10742.556049268656,0,0
11261.575,248.8379610810795,-10732.798405115956,0,0
11271.5875,249.0154271881212,-10723.144387191605,0,0
11281.6,248.76490715566402,-10713.246476291133,0,0
11291.6125,248.93703093572836,-10703.412758277185,0,0
11301.625,248.57773348207417,-10693.88237673092,0,0
11311.6375,248.34885850950067,-10683.858565845589,0,0
11321.65,248.78988724497466,-10674.388511941217,0,0
11331.6625,248.56611778877843,-10664.34316286933,0,0
11341.675,248.60743971370644,-10654.874709241534,0,0
11351.6875,248.63033763214358,-10645.398302455464,0,0
11361.7,248.6928632687378,-10635.645338718115,0,0
11371.7125,248.44389800371795,-10626.020127302885,0,0
11381.725,248.878774893664,-10616.48628855113,0,0
11391.7375,248.6638041442505,-10606.762912414899,0,0
11401.75,249.65114858364115,-10596.3674341733,0,0
11411.7625,248.88922826315664,-10587.136224366144,0,0
11421.775,248.92018436791008,-10578.027045898461,0,0
11431.7875,248.93873595767008,-10568.183818154466,0,0
11441.8,249.27738677811837,-10558.486886751216,0,0
11451.8125,249.47300016116054,-10549.470182900794,0,0
11461.825,249.50474504094436,-10539.851746866492,0,0
11471.8375,249.6349507508227,-10530.50675158212,0,0
11481.85,250.2046156791037,-10520.46482760434,0,0
11491.8625,250.35019986229184,-10510.571653242641,0,0
11501.875,250.96776914456098,-10501.51484907582,0,0
11511.8875,251.07178806998186,-10491.965011581777,0,0
11521.9,251.68897778662486,-10483.174297063382,0,0
11531.9125,252.06415795186928,-10473.476222675697,0,0
11541.925,252.41640149041262,-10463.722264553575,0,0
11551.9375,253.0873850770652,-10455.000795225922,0,0
11561.95,253.50534147032027,-10445.781346284162,0,0
11571.9625,254.35378830553591,-10436.234405249208,0,0
11581.975,254.58771624327534,-10427.726265068788,0,0
11591.9875,255.47350634969877,-10418.113184533551,0,0
11602.0,256.1896779060375,-10409.325905598242,0,0
11612.0125,256.3418242589199,-10400.566973059194,0,0
11622.025,257.4900234482336,-10392.166627640347,0,0
11632.0375,257.9537141008997,-10383.0202026956,0,0
11642.05,258.02127400628797,-10375.02722295961,0,0
11652.0625,259.0252649433909,-10366.668408822376,0,0
11662.075,258.86569636389953,-10357.921236505674,0,0
11672.0875,259.0524700898633,-10350.241125860948,0,0
11682.1,258.9276944216884,-10341.880213679553,0,0
11692.1125,259.3048422107283,-10333.821785979815,0,0
11702.125,258.58592834867295,-10324.83306925779,0,0
11712.1375,257.8579173236268,-10316.585505109451,0,0
11722.15,257.50139840700416,-10308.007381934603,0,0
11732.1625,257.0457958972976,-10299.367638230851,0,0
11742.175,256.68011347116516,-10290.436982965026,0,0
11752.1875,256.57816463876793,-10281.577467175557,0,0
11762.2,256.14215700580695,-10272.439118698481,0,0
11772.2125,255.94476877542965,-10263.288332657608,0,0
11782.225,255.53106989610254,-10253.981530859826,0,0
11792.2375,255.88028021860967,-10244.622896864817,0,0
11802.25,256.3564326893457,-10235.110462123406,0,0
11812.2625,256.661383937939,-10226.365771604713,0,0
11822.275,256.994544219628,-10217.718016031753,0,0
11832.2875,256.95054959277775,-10208.31023201633,0,0
11842.3,257.6214055896298,-10199.326026276267,0,0
11852.3125,258.2676389429452,-10190.82148801012,0,0
11862.325,258.33893679183734,-10182.302909359474,0,0
11872.3375,259.155570127904,-10173.426628799705,0,0
11882.35,259.51826478773233,-10165.594671229233,0,0
11892.3625,259.49381701357277,-10156.865286315759,0,0
11902.375,259.45533190437266,-10148.938322589804,0,0
11912.3875,259.22340088006854,-10139.970619720269,0,0
11922.4,258.84981272416,-10131.736714623692,0,0
11932.4125,258.8806391099493,-10122.523672477937,0,0
11942.425,257.83752857429386,-10113.7530899682,0,0
11952.4375,257.76383778555504,-10104.243965295536,0,0
11962.45,257.6435190885004,-10094.906754968039,0,0
11972.4625,258.0462530026265,-10085.403176385016,0,0
11982.475,258.08921990612816,-10075.717750003772,0,0
11992.4875,258.88384090492576,-10066.182489550678,0,0
12002.5,259.53277719070354,-10056.937595460733,0,0
12012.5125,260.7937169496741,-10047.093187400847,0,0
12022.525,261.78492278689265,-10037.886051767055,0,0
12032.5375,262.95206792406464,-10028.367645076765,0,0
12042.55,263.85793936181796,-10019.118574872353,0,0
12052.5625,265.4776363061173,-10009.983452936334,0,0
12062.575,266.9717573328865,-10000.809837782137,0,0
12072.5875,268.756302158088,-9991.892867246284,0,0
12082.6,270.485186517861,-9983.123491577357,0,0
12092.6125,271.8345213597898,-9973.727684682395,0,0
12102.625,273.70120470883796,-9965.122642881248,0,0
12112.6375,276.0496555117729,-9956.560006914824,0,0
12122.65,278.2127432273488,-9948.055731149489,0,0
12132.6625,280.53561268327354,-9939.87446819951,0,0
12142.675,282.69711955969655,-9931.209538550826,0,0
12152.6875,285.443276807127,-9923.035865304222,0,0
12162.7,288.0751038688397,-9915.063821107567,0,0
12172.7125,290.7979336268914,-9907.602259424355,0,0
12182.725,293.9105726331464,-9900.037247870116,0,0
12192.7375,296.7385609605208,-9892.841314723988,0,0
12202.75,299.57134822587943,-9885.83012846304,0,0
12212.7625,302.6264681136834,-9879.191126486838,0,0
12222.775,305.6627706637387,-9872.59712685172,0,0
12232.7875,309.7804588030973,-9866.851928767841,0,0
12242.8,312.62200885355304,-9861.462750672023,0,0
12252.8125,315.2984462277109,-9856.04288679923,0,0
12262.825,318.5043828241599,-9851.44464068991,0,0
12272.8375,321.26020533182253,-9847.333594833715,0,0
12282.85,323.4647708922374,-9843.357109171777,0,0
12292.8625,325.9486720288986,-9840.029594241669,0,0
12302.875,327.2610938036265,-9837.035838123244,0,0
12312.8875,328.6384884926667,-9834.605658223809,0,0
12322.9,328.60019471107995,-9832.108493032845,0,0
12332.9125,328.7395198730734,-9829.740364524441,0,0
12342.925,327.32797385060786,-9827.297647474583,0,0
12352.9375,325.6692300507267,-9825.308406406672,0,0
12362.95,323.19532966196954,-9822.196449094512,0,0
12372.9625,319.767761856002,-9819.134027797636,0,0
12382.975,315.96248205802243,-9815.66592107705,0,0
12392.9875,311.83948651454006,-9811.63742686775,0,0
12403.0,307.52467464772303,-9806.092026128736,0,0
12413.0125,302.6638500658209,-9800.14736880217,0,0
12423.025,297.99119585455,-9793.837037749943,0,0
12433.0375,293.91015089646135,-9786.7802208773,0,0
12443.05,289.65620313800747,-9779.165106902821,0,0
12453.0625,286.13525110915265,-9771.067342368418,0,0
12463.075,283.1254117239534,-9762.56809941649,0,0
12473.0875,280.47573477432456,-9753.887854064576,0,0
12483.1,278.06299026916474,-9745.276137357516,0,0
12493.1125,276.5323177083582,-9736.175792167338,0,0
12503.125,274.4938121428473,-9728.063898604769,0,0
12513.1375,273.18959739131594,-9719.492764810851,0,0
12523.15,272.0211100702049,-9711.66902511423,0,0
12533.1625,269.99169614606734,-9702.963249283863,0,0
12543.175,269.04962951224354,-9694.825708958382,0,0
12553.1875,267.9469259956041,-9686.755205322195,0,0
12563.2,266.44535958786776,-9678.654906711188,0,0
12573.2125,265.52036248116565,-9670.456530806825,0,0
12583.225,263.729856510558,-9662.14501815289,0,0
12593.2375,262.3238517758557,-9653.849573574042,0,0
12603.25,261.7354937042793,-9644.965836308369,0,0
12613.2625,260.09217011319555,-9636.371971310944,0,0
12623.275,259.1703642157846,-9627.65225011984,0,0
12633.2875,258.4688812959195,-9618.565867689975,0,0
12643.3,258.0746999462359,-9610.109988746814,0,0
12653.3125,257.86438893221754,-9600.805890996124,0,0
12663.325,257.99289170078913,-9591.521358089753,0,0
12673.3375,258.26038536441075,-9583.052925952019,0,0
12683.35,259.0869888747781,-9573.801655904117,0,0
12693.3625,260.065071420356,-9565.236647128682,0,0
12703.375,261.28168516423,-9557.060397469488,0,0
12713.3875,262.56787868924147,-9549.032874991633,0,0
12723.4,264.5573854395783,-9541.439182389468,0,0
12733.4125,266.1727793284089,-9534.349313854074,0,0
12743.425,267.98944554422997,-9527.432171424585,0,0
12753.4375,269.5734192715461,-9520.739061619757,0,0
12763.45,271.0808126915183,-9515.053064308537,0,0
12773.4625,271.85826281403365,-9509.769977962826,0,0
12783.475,272.5719774290124,-9504.30538646218,0,0
12793.4875,273.20620928422056,-9499.013675987442,0,0
12803.5,273.2073746930329,-9494.288326843442,0,0
12813.5125,272.7953108626573,-9489.144543346407,0,0
12823.525,271.86949192410185,-9483.799103983065,0,0
12833.5375,270.53531398785185,-9478.188166273052,0,0
12843.55,269.29660351669986,-9472.829184568514,0,0
12853.5625,267.71174529542986,-9467.226101872175,0,0
12863.575,266.1902121378683,-9460.987842894472,0,0
12873.5875,264.3780664211004,-9454.331069805914,0,0
12883.6,262.4824286296783,-9448.437274044347,0,0
12893.6125,260.92099750794466,-9441.891635696868,0,0
12903.625,259.0801243915714,-9434.916091872961,0,0
12913.6375,257.5028664102545,-9427.831726921058,0,0
12923.65,255.5177600750844,-9420.80325214215,0,0
12933.6625,254.315480501717,-9413.577190226943,0,0
12943.675,252.92113236102728,-9406.345662572177,0,0
12953.6875,251.28131611609203,-9398.769040063684,0,0
12963.7,250.0878380166371,-9391.366979315651,0,0
12973.7125,248.70860767378858,-9383.67252491537,0,0
12983.725,247.64043859041269,-9376.097295214557,0,0
12993.7375,246.51023287229066,-9368.64525407595,0,0
13003.75,245.73128097034638,-9361.23734765847,0,0
13013.7625,244.6584953949846,-9353.614692233814,0,0
13023.775,244.03159463197613,-9345.881330536316,0,0
13033.7875,242.91723004204405,-9337.764025724502,0,0
13043.8,242.52517443165772,-9330.15876952606,0,0
13053.8125,241.63594262036983,-9322.592207817968,0,0
13063.825,240.88634511407787,-9315.028352031597,0,0
13073.8375,240.52724262009556,-9307.314887328404,0,0
13083.85,240.4362870499942,-9299.49368088306,0,0
13093.8625,240.08418319397063,-9291.70395502678,0,0
13103.875,240.36510496180438,-9284.243507225216,0,0
13113.8875,239.7944631079065,-9276.504354952338,0,0
13123.9,239.845854051024,-9269.388789066174,0,0
13133.9125,239.5011710714697,-9261.810919587697,0,0
13143.925,239.48777482345812,-9254.11484554311,0,0
13153.9375,240.2696795943288,-9246.733430606568,0,0
13163.95,240.445439759552,-9239.701313704807,0,0
13173.9625,240.55760099963223,-9233.02428359646,0,0
13183.975,240.43977721912276,-9225.361012955564,0,0
13193.9875,241.96150162812395,-9218.578275195227,0,0
13204.0,241.63271397883233,-9212.197968031953,0,0
13214.0125,242.4502549047543,-9204.966508371832,0,0
13224.025,242.80410089103722,-9199.034717692726,0,0
13234.0375,243.3817230638519,-9192.494380152537,0,0
13244.05,243.43447856496417,-9186.860853687871,0,0
13254.0625,243.96593336576478,-9180.402291747128,0,0
13264.075,243.49179806219527,-9175.095564757801,0,0
13274.0875,243.95894677232158,-9169.61734644236,0,0
13284.1,243.13823819605955,-9164.050265625587,0,0
13294.1125,241.59207325614568,-9157.99186638786,0,0
13304.125,241.10070485832512,-9153.069253896425,0,0
13314.1375,239.95438343954615,-9146.973883073488,0,0
13324.15,239.12988489820054,-9140.567920949363,0,0
13334.1625,237.24284651800684,-9134.72876997506,0,0
13344.175,235.72085580615968,-9128.06637492524,0,0
13354.1875,234.28117291489767,-9121.344113836612,0,0
13364.2,232.19840410646725,-9114.656997659993,0,0
13374.2125,230.65337572714637,-9108.26120998556,0,0
13384.225,229.15635540058832,-9100.543077882863,0,0
13394.2375,227.95021981311604,-9093.76709588639,0,0
13404.25,226.42650223448632,-9086.470465115975,0,0
13414.2625,226.07276261804893,-9078.63750493937,0,0
13424.275,225.1548528574579,-9071.75977681132,0,0
13434.2875,224.30215070592038,-9064.922208724698,0,0
13444.3,222.7965301568536,-9056.913519167425,0,0
13454.3125,222.48731722171473,-9048.764685507927,0,0
13464.325,222.39881979153785,-9041.82380005372,0,0
13474.3375,221.4200114427592,-9034.533942678232,0,0
13484.35,221.14425418569053,-9026.185008896486,0,0
13494.3625,221.31323116460015,-9018.880933970697,0,0
13504.375,220.4073183968191,-9011.612109121586,0,0
13514.3875,220.60937110225234,-9003.735492364276,0,0
13524.4,220.3634764934234,-8997.02919545993,0,0
13534.4125,220.95299110963913,-8988.720235912098,0,0
13544.425,220.96090801457262,-8982.44250902147,0,0
13554.4375,221.65935049009698,-8974.184260921695,0,0
13564.45,221.6970822899637,-8967.684367309937,0,0
13574.4625,222.9502216773549,-8960.708471371601,0,0
13584.475,223.6439365959308,-8953.572023053574,0,0
13594.4875,223.67008110691754,-8947.314711901696,0,0
13604.5,225.56284652446004,-8941.474928383968,0,0
13614.5125,226.33037279932506,-8934.853754969978,0,0
13624.525,226.30623808616582,-8929.042699944457,0,0
13634.5375,227.13627621645048,-8924.287728159266,0,0
13644.55,227.51568765430852,-8919.259470061521,0,0
13654.5625,227.49747807892618,-8913.927702750287,0,0
13664.575,226.94524733203357,-8908.703366237538,0,0
13674.5875,226.08335079822794,-8903.357818494502,0,0
13684.6,225.0152896344858,-8898.103139124618,0,0
13694.6125,223.45182954551845,-8891.96824033568,0,0
13704.625,221.88229521955535,-8886.069769022002,0,0
13714.6375,220.50695709083962,-8879.93837011579,0,0
13724.65,218.5201363919708,-8873.617925465913,0,0
13734.6625,217.55577541907616,-8866.28984791827,0,0
13744.675,216.25877566285632,-8859.955260471419,0,0
