Frequency (Hz),Impedance (ohms),Phase (Radians),Temperature (C),Humidity (%)
10000.0,277.7603401190333,-12143.593832937771,0,0
10010.0125,277.56194683546994,-12130.81683441026,0,0
10020.025,277.06662599575645,-12118.646441244124,0,0
10030.0375,276.7762130133608,-12106.090462038259,0,0
10040.05,276.2359697266174,-12092.95460980571,0,0
10050.0625,276.406656447603,-12080.403138731523,0,0
10060.075,276.2665884189487,-12067.666110816494,0,0
10070.0875,276.4116518849936,-12055.000627505418,0,0
10080.1,276.93681601033114,-12042.568721175892,0,0
10090.1125,277.01629833750826,-12029.937163036533,0,0
10100.125,277.9836203300352,-12017.14829893647,0,0
10110.1375,278.8251697310697,-12004.912727134553,0,0
10120.15,279.71188369402734,-11992.604947820302,0,0
10130.1625,281.5696923033004,-11980.253768844967,0,0
10140.175,283.6556645431436,-11968.04470646123,0,0
10150.1875,285.3901641175011,-11957.097481016499,0,0
10160.2,288.00488155131205,-11946.573950565553,0,0
10170.2125,289.509161933705,-11936.788379149091,0,0
10180.225,291.63435240874065,-11928.035572762747,0,0
10190.2375,291.8838930221963,-11919.94186344004,0,0
10200.25,292.1218923590193,-11912.11028261137,0,0
10210.2625,290.53874691612805,-11903.961746331324,0,0
10220.275,288.33264889497116,-11895.677439582501,0,0
10230.2875,284.71764525843054,-11885.917645924763,0,0
10240.3,281.74062980783197,-11875.267035523617,0,0
10250.3125,278.91802207210753,-11863.960018077341,0,0
10260.325,277.06100701164047,-11851.698572054585,0,0
10270.3375,275.0546752634846,-11839.198197773307,0,0
10280.35,273.54880135414936,-11827.605464537062,0,0
10290.3625,272.2004401527249,-11815.662694161565,0,0
10300.375,271.1586284258776,-11803.21734495647,0,0
10310.3875,270.53974071117244,-11791.500648523974,0,0
10320.4,269.30639930991225,-11780.13913786389,0,0
10330.4125,269.0041430136748,-11767.601576531617,0,0
10340.425,268.31551393097186,-11755.849655154674,0,0
10350.4375,267.42078546728067,-11744.496532409385,0,0
10360.45,267.29401670445446,-11732.473407324755,0,0
10370.4625,266.3698502928183,-11720.514763771529,0,0
10380.475,266.31483393992386,-11709.376141069877,0,0
10390.4875,265.504350553374,-11697.2883221065,0,0
10400.5,265.14885702622485,-11685.967894292477,0,0
10410.5125,264.76382030458063,-11674.398940761954,0,0
10420.525,264.52579490325604,-11662.999620387098,0,0
10430.5375,264.08694016252525,-11651.612431387739,0,0
10440.55,263.4665156582022,-11640.025466332594,0,0
10450.5625,263.30189476319543,-11628.467117209024,0,0
10460.575,263.2233297390381,-11617.440417104004,0,0
10470.5875,262.3333480113119,-11606.16227541574,0,0
10480.6,262.3418779883993,-11594.927801249414,0,0
10490.6125,261.99950371328157,-11583.669885467238,0,0
10500.625,262.0378978004359,-11572.159181565301,0,0
10510.6375,261.5200391191072,-11561.06641934604,0,0
10520.65,261.23168003204705,-11549.892315845851,0,0
10530.6625,261.0419294222923,-11539.06667076025,0,0
10540.675,260.81069533822216,-11527.540677851493,0,0
10550.6875,260.7005758651536,-11516.354928667623,0,0
10560.7,260.2657403133192,-11505.463822894644,0,0
10570.7125,260.2430964476774,-11494.140623111227,0,0
10580.725,259.77107602255404,-11483.183899146945,0,0
10590.7375,259.6085794298528,-11472.180494540544,0,0
10600.75,259.00389021600836,-11461.621577365044,0,0
10610.7625,259.0024732753248,-11450.346015500314,0,0
10620.775,258.99458449003896,-11439.28219056226,0,0
10630.7875,258.3950406491277,-11428.441985349293,0,0
10640.8,258.71021511587,-11417.632945879823,0,0
10650.8125,258.08985268879985,-11406.929462656084,0,0
10660.825,258.1263715645169,-11395.791852456687,0,0
10670.8375,257.66216020229496,-11385.163073598975,0,0
10680.85,257.4585228436899,-11374.355438452316,0,0
10690.8625,257.39797290851567,-11363.175324699514,0,0
10700.875,256.740500607045,-11352.79334891468,0,0
10710.8875,256.9123217599815,-11341.952353549339,0,0
10720.9,256.62795687966184,-11331.423372591873,0,0
10730.9125,256.27312727343406,-11320.563101160647,0,0
10740.925,255.9928842027707,-11309.64816600147,0,0
10750.9375,256.19644018676,-11299.159128381194,0,0
10760.95,255.65704163807328,-11288.61001497182,0,0
10770.9625,255.75812379482835,-11277.571832102023,0,0
10780.975,255.30670376907875,-11267.452780853364,0,0
10790.9875,254.9842220918052,-11256.444997406677,0,0
10801.0,255.36623847777832,-11246.062136034187,0,0
10811.0125,254.9286442233598,-11235.5580266944,0,0
10821.025,255.36502376103022,-11225.089502634299,0,0
10831.0375,254.67824544805595,-11214.589593761553,0,0
10841.05,254.56333321066722,-11204.025731790378,0,0
10851.0625,254.786874167746,-11192.923419408959,0,0
10861.075,254.7858320005571,-11182.903818432716,0,0
10871.0875,254.32571038817903,-11172.669110138875,0,0
10881.1,254.26045813924122,-11162.385608518422,0,0
10891.1125,254.06064672102423,-11151.689198550352,0,0
10901.125,254.13592860449236,-11141.598545113562,0,0
10911.1375,253.87037847008992,-11130.921023664921,0,0
10921.15,253.72575882454566,-11120.830496828374,0,0
10931.1625,253.82043085182033,-11110.380244857406,0,0
10941.175,253.9229985765172,-11100.031860885967,0,0
10951.1875,253.29991110918033,-11089.656659351798,0,0
10961.2,253.4087292385522,-11079.627594128091,0,0
10971.2125,253.36999181128806,-11069.003745260134,0,0
10981.225,252.96994693170922,-11059.05570596189,0,0
10991.2375,253.1949932906221,-11048.55978594297,0,0
11001.25,253.03093553756094,-11038.483269396702,0,0
11011.2625,253.11567264829958,-11028.514297727204,0,0
11021.275,253.1368579426544,-11018.143297101218,0,0
11031.2875,253.07576106569033,-11008.532742126205,0,0
11041.3,253.1572906820546,-10998.324878216752,0,0
11051.3125,252.69213515188451,-10988.311805517458,0,0
11061.325,252.9594415149391,-10978.11131882092,0,0
11071.3375,252.42672611749697,-10968.18606651467,0,0
11081.35,252.39642093725965,-10958.032174374679,0,0
11091.3625,252.30607313813454,-10947.9542400462,0,0
11101.375,252.48848313999704,-10938.370571805794,0,0
11111.3875,252.20626962324314,-10928.199049751225,0,0
11121.4,251.86074222830368,-10918.63535267184,0,0
11131.4125,252.011058665008,-10908.481737455417,0,0
11141.425,251.48740220197627,-10898.86505743642,0,0
11151.4375,251.7387489009926,-10888.685171714187,0,0
11161.45,251.27837559535297,-10878.753522288529,0,0
11171.4625,251.0174161555823,-10869.052694920509,0,0
11181.475,251.4706416035058,-10858.990144819652,0,0
11191.4875,251.1347694105778,-10848.844699952899,0,0
11201.5,251.23368728371673,-10839.372642019467,0,0
11211.5125,250.72017330252532,-10829.140518917722,0,0
11221.525,250.775565025595,-10819.866008446017,0,0
11231.5375,250.6430274554863,-10809.824551768428,0,0
11241.55,250.32895241437802,-10799.779884933454,0,0
11251.5625,250.51673860993301,-10790.177045475972,0,0
11261.575,250.22312059722165,-10780.078255136566,0,0
11271.5875,250.25384454121968,-10770.457704058925,0,0
11281.6,250.33346022591948,-10760.411019872658,0,0
11291.6125,250.4691015188389,-10751.291597224586,0,0
11301.625,250.32844238718795,-10741.2355031102,0,0
11311.6375,250.072016626415,-10731.003410635534,0,0
11321.65,249.77426736238144,-10721.43551901461,0,0
11331.6625,250.02148744675463,-10711.854592283562,0,0
11341.675,250.11088884979958,-10701.69287047904,0,0
11351.6875,250.05921179367584,-10692.419099252424,0,0
11361.7,249.96009657746808,-10682.517556516039,0,0
11371.7125,250.14467043281846,-10672.687372948674,0,0
11381.725,250.42767554081567,-10663.118015228134,0,0
11391.7375,250.2899788788407,-10653.35679462724,0,0
11401.75,251.69023196862184,-10642.424606751953,0,0
11411.7625,250.39777177036785,-10633.921817950446,0,0
11421.775,250.4864496981665,-10624.544829545324,0,0
11431.7875,250.46211560996196,-10614.856914108897,0,0
11441.8,250.7385940635264,-10605.262194187004,0,0
11451.8125,250.82927262154115,-10595.964888142997,0,0
11461.825,251.68419203672343,-10586.19606329769,0,0
11471.8375,251.727311323539,-10576.56533227127,0,0
11481.85,251.72027980948337,-10566.935115505308,0,0
11491.8625,252.24100838108478,-10557.44613194513,0,0
11501.875,252.55440431695882,-10548.034608766098,0,0
11511.8875,252.0478128059862,-10538.60487082384,0,0
11521.9,253.009930164675,-10528.71036322326,0,0
11531.9125,253.53633306606952,-10519.480579295388,0,0
11541.925,253.7415785790808,-10510.219172740288,0,0
11551.9375,254.24737722455012,-10501.010559013552,0,0
11561.95,254.6128361457545,-10491.300179687129,0,0
11571.9625,256.1157597010118,-10482.222402963176,0,0
11581.975,256.27663111588174,-10473.110332453134,0,0
11591.9875,256.8673435097859,-10463.996910948763,0,0
11602.0,257.3156275169385,-10455.128389723463,0,0
11612.0125,258.2948115167164,-10446.586885096782,0,0
11622.025,258.6964117351878,-10437.723704476164,0,0
11632.0375,259.83348200037574,-10428.874550075425,0,0
11642.05,259.5290023815229,-10420.244869878266,0,0
11652.0625,260.3342756291857,-10411.902633384389,0,0
11662.075,261.2201835331133,-10403.628544687906,0,0
11672.0875,260.9166541446275,-10395.0531172426,0,0
11682.1,261.07545308610173,-10386.778833504797,0,0
11692.1125,260.8662171603204,-10378.756214080548,0,0
11702.125,260.8950693286444,-10370.543044045782,0,0
11712.1375,260.90167821940037,-10361.65754038317,0,0
11722.15,259.9639619537448,-10353.224547301032,0,0
11732.1625,259.7284270328306,-10344.784202210716,0,0
11742.175,259.22959926661656,-10335.529656632774,0,0
11752.1875,258.3996340120192,-10326.39410995856,0,0
11762.2,258.2157258538748,-10317.834913756047,0,0
11772.2125,258.4939485925426,-10308.774945391035,0,0
11782.225,258.2669000585561,-10299.305606856988,0,0
11792.2375,258.2929561053556,-10289.627180564647,0,0
11802.25,258.43773794083046,-10280.489020268027,0,0
11812.2625,258.3947432437536,-10271.476142427533,0,0
11822.275,258.64611708731064,-10262.274702692355,0,0
11832.2875,258.90373489050137,-10253.396138220265,0,0
11842.3,259.3199665956182,-10244.164722734677,0,0
11852.3125,259.736472416345,-10235.425300681094,0,0
11862.325,260.1858234564395,-10226.690747167126,0,0
11872.3375,260.8359679843732,-10217.864162707145,0,0
11882.35,261.55697558571705,-10209.599362013232,0,0
11892.3625,261.93181729674865,-10201.246021302128,0,0
11902.375,261.9727935689067,-10193.08766894299,0,0
11912.3875,261.8100639426389,-10184.942332428174,0,0
11922.4,261.3606635834054,-10176.049410727803,0,0
11932.4125,260.99686040388116,-10167.255524347474,0,0
11942.425,260.93703503319136,-10158.639051847078,0,0
11952.4375,260.1063586547836,-10149.245625502486,0,0
11962.45,260.15192731260794,-10139.84027342864,0,0
11972.4625,260.42886906733526,-10130.704966372025,0,0
11982.475,260.1789886484528,-10120.71485366933,0,0
11992.4875,261.2102163897197,-10110.938757014927,0,0
12002.5,261.3997885395906,-10101.255800297607,0,0
12012.5125,262.5380372646617,-10092.017803048851,0,0
12022.525,263.0961854680428,-10082.533158658205,0,0
12032.5375,264.80276619079706,-10073.321383308972,0,0
12042.55,265.9948124386045,-10063.688099473628,0,0
12052.5625,267.03795603013276,-10054.493651179679,0,0
12062.575,268.7688691563484,-10045.353605437736,0,0
12072.5875,270.4189051999883,-10036.113485147425,0,0
12082.6,271.82817703286594,-10027.314164791052,0,0
12092.6125,273.8187360238137,-10018.630875956618,0,0
12102.625,275.93182684742135,-10009.596177254874,0,0
12112.6375,277.68916490108376,-10000.836172039768,0,0
12122.65,279.79922313141606,-9992.340089599656,0,0
12132.6625,282.2303358506111,-9983.980515784186,0,0
12142.675,284.4987532146608,-9975.407155162282,0,0
12152.6875,286.7449472391693,-9967.448711990059,0,0
12162.7,289.28407221102566,-9959.177015049003,0,0
12172.7125,292.4316727044127,-9951.52897956834,0,0
12182.725,295.2014316519258,-9944.059248731759,0,0
12192.7375,298.1536974982062,-9936.826044126927,0,0
12202.75,300.5407591635109,-9929.486879327074,0,0
12212.7625,304.1495245804025,-9922.361717625852,0,0
12222.775,307.14568554610054,-9915.984843664195,0,0
12232.7875,310.574378708119,-9909.901255730683,0,0
12242.8,313.75630360249636,-9904.14907437996,0,0
12252.8125,316.49621062345904,-9898.69420502099,0,0
12262.825,319.58952199291923,-9894.005838255536,0,0
12272.8375,322.60073210822827,-9889.51497334818,0,0
12282.85,325.2298474536755,-9885.399634955298,0,0
12292.8625,327.43966739605054,-9881.989403536352,0,0
12302.875,329.1993789954877,-9878.86821309937,0,0
12312.8875,330.60739016567015,-9876.145884277315,0,0
12322.9,331.04109352858023,-9873.70000775443,0,0
12332.9125,331.34779546247273,-9871.167006227653,0,0
12342.925,330.64418941400254,-9869.301967205272,0,0
12352.9375,328.95254228840747,-9866.870230703425,0,0
12362.95,326.62035110839855,-9864.145342085903,0,0
12372.9625,323.55787707328955,-9861.136043631399,0,0
12382.975,319.89062825881814,-9857.712944003346,0,0
12392.9875,316.02152877217253,-9853.970889535238,0,0
12403.0,311.87363963805194,-9849.523569039362,0,0
12413.0125,306.4708912329286,-9843.880142519374,0,0
12423.025,302.0973619659351,-9837.465138530624,0,0
12433.0375,298.0390146014435,-9830.486937121188,0,0
12443.05,293.45453085814177,-9822.638989667726,0,0
12453.0625,289.9955772490847,-9814.30106599708,0,0
12463.075,286.0233855075041,-9806.241487224725,0,0
12473.0875,283.50500745287655,-9797.41511896992,0,0
12483.1,280.92938431987835,-9788.918266436354,0,0
12493.1125,278.7780942063049,-9779.831137151132,0,0
12503.125,277.0123339816531,-9771.473104117347,0,0
12513.1375,275.83370174883737,-9762.548473532093,0,0
12523.15,274.1770753698944,-9753.94363890096,0,0
12533.1625,272.9214523438732,-9746.088336888855,0,0
12543.175,271.8226076481558,-9737.936062466299,0,0
12553.1875,270.41527500040576,-9729.255332442834,0,0
12563.2,269.08436318422196,-9721.484702381695,0,0
12573.2125,267.72272160396255,-9713.02424466726,0,0
12583.225,266.9289314862063,-9705.09335389914,0,0
12593.2375,265.47472545439035,-9696.144875328157,0,0
12603.25,264.3024504823776,-9687.969791172009,0,0
12613.2625,263.27764027341647,-9678.721002117987,0,0
12623.275,261.9526074965208,-9669.963708642881,0,0
12633.2875,261.54176736260655,-9660.939573235444,0,0
12643.3,260.8596490428623,-9652.006498528346,0,0
12653.3125,261.037835199077,-9643.408028961634,0,0
12663.325,261.06388780463783,-9634.343633975705,0,0
12673.3375,261.19993284952056,-9625.064289745627,0,0
12683.35,261.64075766111347,-9616.28035366289,0,0
12693.3625,263.14445917085527,-9607.57619225479,0,0
12703.375,264.75657717099074,-9599.014017131329,0,0
12713.3875,266.0563595479974,-9590.968106340983,0,0
12723.4,268.1147303189245,-9583.069450405543,0,0
12733.4125,269.7873938647166,-9575.754729895742,0,0
12743.425,271.9655619857126,-9569.372995691865,0,0
12753.4375,273.77437271308577,-9563.094918600973,0,0
12763.45,274.8575113522275,-9557.455370157617,0,0
12773.4625,276.54527232195755,-9552.160838319805,0,0
12783.475,277.1550944594971,-9546.975451946219,0,0
12793.4875,277.33415408991664,-9542.300641374997,0,0
12803.5,277.700656101862,-9537.513113266987,0,0
12813.5125,276.6150538541392,-9532.685657799486,0,0
12823.525,276.36435723684195,-9527.977400881993,0,0
12833.5375,274.82771272349214,-9522.629938495907,0,0
12843.55,273.2080514662189,-9517.054105473046,0,0
12853.5625,271.77156972249526,-9511.405828492088,0,0
12863.575,269.92381415573965,-9505.337585207528,0,0
12873.5875,267.6995946594373,-9499.318110318834,0,0
12883.6,266.1006657334485,-9492.770690613945,0,0
12893.6125,263.5410804244898,-9486.258320637162,0,0
12903.625,262.27828747206826,-9479.307890935594,0,0
12913.6375,259.9300998646665,-9472.185622878054,0,0
12923.65,258.4210571619683,-9465.276711095345,0,0
12933.6625,256.51015034639676,-9457.829170925826,0,0
12943.675,255.33812467142639,-9450.79705315065,0,0
12953.6875,253.71375924705788,-9443.11834106002,0,0
12963.7,252.27694122259038,-9435.672832870701,0,0
12973.7125,250.77323533833356,-9427.745720795334,0,0
12983.725,249.45720958692928,-9420.186260027805,0,0
12993.7375,248.4866483578002,-9412.594576556037,0,0
13003.75,247.23473416710235,-9404.74145586172,0,0
13013.7625,245.93341184201543,-9397.51572624211,0,0
13023.775,244.97196212655314,-9389.719856697504,0,0
13033.7875,244.16439072425678,-9381.695268960455,0,0
13043.8,243.80673218999058,-9373.810477333122,0,0
13053.8125,242.56189147433042,-9366.044833380061,0,0
13063.825,241.7488017601236,-9358.703361220885,0,0
13073.8375,241.60464502652675,-9350.556513749123,0,0
13083.85,241.1733090008092,-9342.934877514903,0,0
13093.8625,240.45662039728782,-9335.474435218506,0,0
13103.875,240.49289150669216,-9327.40207837574,0,0
13113.8875,240.3219943272715,-9319.590661666283,0,0
13123.9,240.1218811027894,-9311.961280117055,0,0
13133.9125,240.34522219294854,-9304.648597521178,0,0
13143.925,239.96312815302494,-9297.037507147526,0,0
13153.9375,240.21280734146848,-9289.52110314858,0,0
13163.95,240.5857541195871,-9282.102523799376,0,0
13173.9625,240.74466402459745,-9274.344690343434,0,0
13183.975,241.01920607413493,-9267.156118116267,0,0
13193.9875,241.43301105258894,-9260.343961284694,0,0
13204.0,241.29420886401388,-9253.69297175883,0,0
13214.0125,242.2481170695049,-9246.914303254202,0,0
13224.025,242.67054514178986,-9239.838500294585,0,0
13234.0375,242.8317363076943,-9233.552148546463,0,0
13244.05,243.70291016462372,-9227.043462834688,0,0
13254.0625,243.71891757920864,-9221.036196693593,0,0
13264.075,243.75294953527705,-9215.162260622397,0,0
13274.0875,243.48032107322416,-9209.725595969952,0,0
13284.1,243.70338100105946,-9203.647695253543,0,0
13294.1125,243.44534517049445,-9197.883614873022,0,0
13304.125,242.9421538943273,-9191.862861394078,0,0
13314.1375,241.59483233650516,-9186.472862599356,0,0
13324.15,240.50163091273228,-9180.506939923844,0,0
13334.1625,239.34560320499924,-9174.337031629566,0,0
13344.175,238.34733387980873,-9168.40571638361,0,0
13354.1875,236.09883233236906,-9162.562819839464,0,0
13364.2,234.96339167100987,-9155.510062451756,0,0
13374.2125,233.49346561940428,-9149.021237464842,0,0
13384.225,232.02964561328236,-9141.025317143114,0,0
13394.2375,230.64668129015914,-9135.264731885849,0,0
13404.25,229.17290185924824,-9127.766438638952,0,0
13414.2625,227.87874244383633,-9120.68356457849,0,0
13424.275,226.89206692438873,-9112.839023631228,0,0
13434.2875,225.54393704326685,-9105.247648360104,0,0
13444.3,224.82619050210232,-9098.146284350478,0,0
13454.3125,224.3971699125901,-9090.241948289504,0,0
13464.325,223.277971713713,-9082.671510864997,0,0
13474.3375,222.82245653794155,-9076.006202854975,0,0
13484.35,223.068699460421,-9067.841422726868,0,0
13494.3625,222.7207186095942,-9059.96661234866,0,0
13504.375,222.11879826131124,-9052.475375666443,0,0
13514.3875,221.4170445592243,-9044.828230478724,0,0
13524.4,221.36247753161354,-9037.27918146041,0,0
13534.4125,221.81601135924979,-9030.226564932358,0,0
13544.425,221.4541716411276,-9022.598714332617,0,0
13554.4375,222.029610013246,-9015.864492742343,0,0
13564.45,222.46937869113717,-9007.91502308559,0,0
13574.4625,223.28834922138327,-9001.041606595421,0,0
13584.475,223.75135092524607,-8993.988090530853,0,0
13594.4875,225.48592504946998,-8987.126787744559,0,0
13604.5,226.55378543363528,-8981.221936524049,0,0
13614.5125,227.29327846807675,-8975.307586988249,0,0
13624.525,227.24656795367503,-8969.099290959814,0,0
13634.5375,228.07897986806645,-8962.878226537674,0,0
13644.55,229.03994733301082,-8958.535418670184,0,0
13654.5625,228.0951169077047,-8953.582654824071,0,0
13664.575,227.7562594173143,-8947.844774142777,0,0
13674.5875,227.73573009380257,-8943.728644096715,0,0
13684.6,225.6588099158876,-8937.66122196066,0,0
13694.6125,225.07101440569915,-8932.042957355896,0,0
13704.625,222.44569133682535,-8926.047756791806,0,0
13714.6375,221.72534523383518,-8919.328478903139,0,0
13724.65,219.9544707384602,-8913.329696262965,0,0
13734.6625,219.50293406626466,-8906.468139235629,0,0
13744.675,217.69978656540025,-8899.096674467502,0,0
