Frequency (Hz),Impedance (ohms),Phase (Radians),Temperature (C),Humidity (%)
10000.0,273.46918151287986,-12102.518467646381,0,0
10010.0125,273.4934287058158,-12089.719955878158,0,0
10020.025,272.90375821341735,-12077.588726310862,0,0
10030.0375,272.5808673938925,-12064.485469942678,0,0
10040.05,272.0459471183094,-12052.411970276979,0,0
10050.0625,271.7487651946955,-12039.77600887483,0,0
10060.075,271.734885036787,-12027.172688339628,0,0
10070.0875,272.0445486504759,-12014.635932045507,0,0
10080.1,271.5301605985948,-12002.201124460205,0,0
10090.1125,272.2168168825495,-11989.453197071587,0,0
10100.125,273.0110421812467,-11976.601132313295,0,0
10110.1375,273.6440205743179,-11964.131457987949,0,0
10120.15,274.87109643209993,-11951.657969708735,0,0
10130.1625,275.80263280551253,-11939.20499719706,0,0
10140.175,277.4581562453986,-11927.3901626863,0,0
10150.1875,279.0432624230823,-11915.618216036099,0,0
10160.2,281.5563196052299,-11904.751678731282,0,0
10170.2125,283.8152021031959,-11893.983617013035,0,0
10180.225,286.2760747086837,-11884.389420402314,0,0
10190.2375,287.5365819504967,-11875.638944212085,0,0
10200.25,288.24576621553734,-11867.535130114718,0,0
10210.2625,288.30083323661256,-11860.048334666868,0,0
10220.275,286.6549538978539,-11852.228271475353,0,0
10230.2875,283.9902960214644,-11843.301068076717,0,0
10240.3,280.8629300935809,-11834.195777345098,0,0
10250.3125,277.19717415103844,-11823.256261346576,0,0
10260.325,274.9024363187241,-11811.835545373693,0,0
10270.3375,272.6399968145824,-11799.813806062812,0,0
10280.35,270.79607593153065,-11787.790091593502,0,0
10290.3625,269.33538579230634,-11775.765260538117,0,0
10300.375,268.1173780553043,-11763.954691442334,0,0
10310.3875,267.20052099194106,-11751.841536121477,0,0
10320.4,266.06681473103737,-11739.959937030608,0,0
10330.4125,265.5116912007033,-11728.151849477137,0,0
10340.425,264.9782324454659,-11716.395317459126,0,0
10350.4375,264.30916758731655,-11704.121800218643,0,0
10360.45,263.31228715521354,-11692.989328865262,0,0
10370.4625,262.86557838800695,-11681.26604504334,0,0
10380.475,262.2612098746366,-11669.423014097765,0,0
10390.4875,261.81426371432,-11658.111957166431,0,0
10400.5,261.5416172031267,-11646.97668682978,0,0
10410.5125,261.23482694787026,-11634.944461641015,0,0
10420.525,260.4804939659393,-11623.585708081459,0,0
10430.5375,260.2042338644232,-11612.220605653974,0,0
10440.55,260.2462822001679,-11600.355200451522,0,0
10450.5625,259.4856463598524,-11589.088848531894,0,0
10460.575,259.1136138663444,-11578.212493983507,0,0
10470.5875,259.37643751068737,-11566.695546033086,0,0
10480.6,258.4762664738736,-11555.63316345214,0,0
10490.6125,258.33357956205293,-11544.230648831413,0,0
10500.625,258.07467545940744,-11532.94241920617,0,0
10510.6375,258.0311489549926,-11521.925631663953,0,0
10520.65,257.3778870737077,-11510.652840033208,0,0
10530.6625,257.22552762224484,-11499.826725553074,0,0
10540.675,257.08167052641124,-11488.316430286373,0,0
10550.6875,256.9199999818762,-11477.184126672066,0,0
10560.7,256.456827412274,-11466.384178978275,0,0
10570.7125,256.5224102224275,-11455.39028640838,0,0
10580.725,255.99833288582317,-11444.483461622873,0,0
10590.7375,255.9098863819008,-11433.911951900705,0,0
10600.75,255.46432414034456,-11422.705167423295,0,0
10610.7625,255.58851473303864,-11411.727264700505,0,0
10620.775,255.54501506716198,-11400.831809768326,0,0
10630.7875,255.0031261560041,-11390.002122402575,0,0
10640.8,254.432699748919,-11379.365902265095,0,0
10650.8125,254.46018372635947,-11368.343013901398,0,0
10660.825,254.27117943383817,-11357.493124637802,0,0
10670.8375,254.12516149899062,-11346.739298818593,0,0
10680.85,253.75259418472936,-11335.975696255122,0,0
10690.8625,253.5012775157166,-11324.901936542308,0,0
10700.875,253.38913349489047,-11314.491868396653,0,0
10710.8875,253.3708117006827,-11303.639070749656,0,0
10720.9,253.03071021178386,-11293.076212430156,0,0
10730.9125,253.18710685817635,-11282.049556896842,0,0
10740.925,252.39844425876504,-11271.839959001505,0,0
10750.9375,252.69560207264163,-11260.513334973313,0,0
10760.95,251.98226239427282,-11250.340740567679,0,0
10770.9625,252.0991703334097,-11239.439859300424,0,0
10780.975,251.86942708635357,-11228.958177827813,0,0
10790.9875,251.90446173240784,-11218.61143429542,0,0
10801.0,251.72503493648023,-11208.222266167599,0,0
10811.0125,251.4953594707624,-11197.68574345021,0,0
10821.025,251.2474925478353,-11186.830754504968,0,0
10831.0375,251.08849460826818,-11176.315330563895,0,0
10841.05,250.9610183234864,-11165.912129838745,0,0
10851.0625,250.74207618601307,-11155.40642393432,0,0
10861.075,250.84284162142666,-11145.003713230037,0,0
10871.0875,250.57689671229295,-11134.410400646599,0,0
10881.1,250.6488463227169,-11124.24728931704,0,0
10891.1125,250.2050187556107,-11113.967740096894,0,0
10901.125,250.45568941405253,-11103.927729214422,0,0
10911.1375,250.27688433662638,-11093.174683091102,0,0
10921.15,250.0906603240264,-11083.043560400436,0,0
10931.1625,249.85903163887934,-11072.879784794248,0,0
10941.175,249.90082685763974,-11062.71697177348,0,0
10951.1875,249.93409188626757,-11052.377194014953,0,0
10961.2,249.74968480520093,-11042.2520777893,0,0
10971.2125,249.54696859847132,-11031.809483728604,0,0
10981.225,249.4046815542793,-11022.003652055733,0,0
10991.2375,249.26765863155535,-11011.680475654839,0,0
11001.25,249.30316821502095,-11001.273225873216,0,0
11011.2625,249.2406962865459,-10991.502513828269,0,0
11021.275,249.50305270469013,-10981.391896445151,0,0
11031.2875,249.43907632425228,-10971.387616676617,0,0
11041.3,249.1094691939937,-10961.271492806583,0,0
11051.3125,248.82953882604525,-10951.142740685058,0,0
11061.325,248.87764505652052,-10941.17637969695,0,0
11071.3375,248.7440545193429,-10931.16966439305,0,0
11081.35,248.49369083928056,-10921.137344405857,0,0
11091.3625,248.50361591622925,-10911.284564980078,0,0
11101.375,248.61224988286241,-10901.306168681958,0,0
11111.3875,248.35098226144348,-10891.621470531602,0,0
11121.4,248.13819194000857,-10881.730155939715,0,0
11131.4125,248.01905973647058,-10871.908841426519,0,0
11141.425,247.98139073612046,-10861.985674052652,0,0
11151.4375,247.85606233413546,-10851.702429643576,0,0
11161.45,247.7313027707819,-10841.923752465975,0,0
11171.4625,247.700579895963,-10832.472974976146,0,0
11181.475,247.41959612334034,-10822.670326089794,0,0
11191.4875,247.2355826563846,-10812.554152790432,0,0
11201.5,247.22644510795013,-10802.311098821388,0,0
11211.5125,247.0702375049604,-10792.96578800136,0,0
11221.525,246.66945442803592,-10783.155133437425,0,0
11231.5375,246.63610688041348,-10773.175391739005,0,0
11241.55,246.7009722034237,-10763.438544470977,0,0
11251.5625,246.57881901260797,-10753.87454057163,0,0
11261.575,246.34355197953755,-10744.190065856343,0,0
11271.5875,246.5404238178275,-10734.481670866942,0,0
11281.6,246.1513583778992,-10724.665366119028,0,0
11291.6125,246.21911337902566,-10714.657786585545,0,0
11301.625,246.27906661799733,-10705.016902974354,0,0
11311.6375,246.2743868824714,-10695.289637690372,0,0
11321.65,246.29150580742737,-10685.852787502165,0,0
11331.6625,246.2902550520116,-10676.068789506044,0,0
11341.675,245.75508037258535,-10666.333883037898,0,0
11351.6875,246.08798158865207,-10656.447283912794,0,0
11361.7,245.97063360102499,-10646.951138758885,0,0
11371.7125,245.70578922459617,-10637.332844814053,0,0
11381.725,246.10164349201418,-10627.668540081155,0,0
11391.7375,245.72007222682333,-10617.862868910035,0,0
11401.75,245.99068535319364,-10607.265242426514,0,0
11411.7625,245.81307825795582,-10598.548963864163,0,0
11421.775,246.20807193284412,-10588.960897743615,0,0
11431.7875,246.11528936523243,-10579.40015014227,0,0
11441.8,246.19771828840481,-10569.878084039608,0,0
11451.8125,246.158956551493,-10560.413686314338,0,0
11461.825,246.37755418809795,-10550.8429112035,0,0
11471.8375,246.4048318950337,-10541.52356474297,0,0
11481.85,246.86264738066458,-10532.051680279865,0,0
11491.8625,247.08209274055696,-10522.293386124216,0,0
11501.875,247.02068851739566,-10512.643211466291,0,0
11511.8875,247.39648956291455,-10503.415085878858,0,0
11521.9,247.12871551011372,-10493.957112444054,0,0
11531.9125,247.74944499620287,-10484.202236072728,0,0
11541.925,247.61911403208947,-10474.82903859086,0,0
11551.9375,248.09472463620907,-10465.284657659478,0,0
11561.95,248.35431286536604,-10455.652831542615,0,0
11571.9625,248.74950634976096,-10446.378153842808,0,0
11581.975,249.55245953617066,-10437.430912583524,0,0
11591.9875,249.47751139798964,-10427.795755513038,0,0
11602.0,250.03730853983066,-10418.432867324515,0,0
11612.0125,250.9724931071646,-10408.923795597122,0,0
11622.025,250.78356386798458,-10400.067482261615,0,0
11632.0375,251.57251181472623,-10390.175089167886,0,0
11642.05,252.35219111458582,-10381.308785218267,0,0
11652.0625,252.84815993311062,-10372.062450298261,0,0
11662.075,253.62221795826895,-10363.29431745993,0,0
11672.0875,254.60285904602688,-10354.20103967059,0,0
11682.1,255.31552075441073,-10345.178866952552,0,0
11692.1125,255.95005905295795,-10337.072675592424,0,0
11702.125,256.94644199043626,-10328.077767233666,0,0
11712.1375,257.7130278210676,-10319.368808249554,0,0
11722.15,257.98502896365,-10311.429888567234,0,0
11732.1625,258.6698134829031,-10303.214901056437,0,0
11742.175,259.02576916933486,-10294.572701838388,0,0
11752.1875,259.2517870266517,-10286.213464874454,0,0
11762.2,258.9563083924326,-10278.2774947647,0,0
11772.2125,258.9822664971186,-10270.187300302205,0,0
11782.225,258.83134440514016,-10261.802454351615,0,0
11792.2375,258.64718542517585,-10253.21581911822,0,0
11802.25,258.01871622600993,-10244.265669278979,0,0
11812.2625,258.094132665513,-10235.449582543706,0,0
11822.275,257.95229881661226,-10226.708283912989,0,0
11832.2875,258.21956262977545,-10217.194592291155,0,0
11842.3,258.74333421197537,-10208.014186579361,0,0
11852.3125,258.5032269265674,-10199.022683810635,0,0
11862.325,259.0890057598462,-10190.226357922436,0,0
11872.3375,259.4217036795138,-10180.74146337951,0,0
11882.35,260.6576122566372,-10171.679908332875,0,0
11892.3625,261.4187197870607,-10162.88664050844,0,0
11902.375,262.4919300945146,-10154.622399212609,0,0
11912.3875,263.1336237524911,-10145.540036056238,0,0
11922.4,264.77047369668765,-10136.806537413568,0,0
11932.4125,265.60269618580935,-10129.243500166449,0,0
11942.425,266.8101001459234,-10120.962466140494,0,0
11952.4375,267.74575082432153,-10113.852475718231,0,0
11962.45,268.7215589505223,-10105.931490012696,0,0
11972.4625,269.4634732530194,-10098.796411539739,0,0
11982.475,269.37989763266404,-10091.416812846282,0,0
11992.4875,269.2686049723419,-10084.310886411598,0,0
12002.5,268.91737152287897,-10076.732878848758,0,0
12012.5125,267.9180106689787,-10069.15736471218,0,0
12022.525,266.4359125278826,-10061.244548225894,0,0
12032.5375,266.03936949206826,-10052.56696925665,0,0
12042.55,265.14763649586854,-10043.55931347191,0,0
12052.5625,263.99282765047,-10034.297670575514,0,0
12062.575,263.82553679850446,-10024.75733544906,0,0
12072.5875,263.81792144674347,-10015.181183709221,0,0
12082.6,264.43893431973737,-10005.09468360349,0,0
12092.6125,264.7281539601723,-9995.534767751715,0,0
12102.625,265.78756576728415,-9985.703666491572,0,0
12112.6375,267.0091396256561,-9976.023480958502,0,0
12122.65,268.4131124632106,-9966.90813605945,0,0
12132.6625,269.8352353464778,-9957.170102196707,0,0
12142.675,271.90477665922674,-9948.059432003407,0,0
12152.6875,274.03503540309305,-9938.98733471258,0,0
12162.7,276.41016052520814,-9930.30210311594,0,0
12172.7125,278.3811326510805,-9921.440603019477,0,0
12182.725,280.6811209499145,-9912.88591978019,0,0
12192.7375,283.35871917780474,-9904.556732574885,0,0
12202.75,286.88389278059003,-9896.713748857888,0,0
12212.7625,290.0902152451727,-9889.012459318146,0,0
12222.775,292.8725932179008,-9881.334277845448,0,0
12232.7875,296.34535209663534,-9874.255892900825,0,0
12242.8,299.61494066916634,-9867.601506663528,0,0
12252.8125,303.15449818463424,-9860.986892455874,0,0
12262.825,306.234896102923,-9854.936115899876,0,0
12272.8375,309.9823883233572,-9849.523467734132,0,0
12282.85,312.8150419428466,-9844.168745721307,0,0
12292.8625,315.8490320339111,-9839.513057083528,0,0
12302.875,319.0429594106658,-9835.12395419676,0,0
12312.8875,321.63988426289416,-9831.95808870806,0,0
12322.9,323.41423528706554,-9828.939440787684,0,0
12332.9125,325.13910501604,-9826.003694431576,0,0
12342.925,326.08705918419105,-9823.377578174013,0,0
12352.9375,326.6991218444859,-9821.578732530901,0,0
12362.95,325.87147592791706,-9818.812872726687,0,0
12372.9625,324.8343510824794,-9817.115863819055,0,0
12382.975,322.4626718305037,-9814.75868113847,0,0
12392.9875,320.266767927119,-9812.214137614472,0,0
12403.0,316.3261920330858,-9809.0523235481,0,0
12413.0125,312.9265028324677,-9805.748299903442,0,0
12423.025,308.3285092754062,-9800.759354664488,0,0
12433.0375,303.7387722726282,-9795.7773846376,0,0
12443.05,299.5211123321748,-9789.665348079181,0,0
12453.0625,294.637998980227,-9782.933787416603,0,0
12463.075,290.33333665671427,-9775.85007100707,0,0
12473.0875,286.4599185239443,-9768.11960712671,0,0
12483.1,283.24035839263814,-9759.770745994825,0,0
12493.1125,280.08033537839856,-9751.138051294347,0,0
12503.125,277.32373422231296,-9742.85485565295,0,0
12513.1375,275.47546316955817,-9734.346321418325,0,0
12523.15,273.08699162538755,-9725.805635856463,0,0
12533.1625,271.244226147223,-9717.563586359938,0,0
12543.175,270.03844465325096,-9708.946209839842,0,0
12553.1875,268.1941670557055,-9700.788220229548,0,0
12563.2,267.4587555695247,-9692.805380382202,0,0
12573.2125,266.11967286669477,-9684.822158367693,0,0
12583.225,264.8241572604795,-9676.834431553003,0,0
12593.2375,262.99261716417396,-9669.38254915219,0,0
12603.25,261.8718186687305,-9661.589867048966,0,0
12613.2625,259.8224328355306,-9652.866067464443,0,0
12623.275,258.4715496991402,-9644.78438039943,0,0
12633.2875,257.01649199070096,-9636.74019245966,0,0
12643.3,255.49253616402893,-9628.22751982337,0,0
12653.3125,254.04535611317016,-9619.517635835286,0,0
12663.325,252.99255950799534,-9611.118217417205,0,0
12673.3375,251.87848001592167,-9601.922815942351,0,0
12683.35,251.11801796405305,-9592.984787435495,0,0
12693.3625,250.15101652131256,-9584.139168219534,0,0
12703.375,249.75053142018092,-9574.920025553663,0,0
12713.3875,249.2666949788111,-9565.632675976969,0,0
12723.4,249.38657668095775,-9556.50639479521,0,0
12733.4125,249.79662810633707,-9547.303900657345,0,0
12743.425,250.67538634532474,-9538.300879982136,0,0
12753.4375,251.8312499898416,-9529.51662409925,0,0
12763.45,252.89928074325172,-9520.975192141008,0,0
12773.4625,254.24938067348117,-9512.423899146466,0,0
12783.475,256.3677918164618,-9504.045128359196,0,0
12793.4875,258.4395457465681,-9496.46538498798,0,0
12803.5,260.44445377187645,-9489.164917841832,0,0
12813.5125,262.61272070593,-9482.331707771638,0,0
12823.525,264.7203592686218,-9476.021510162293,0,0
12833.5375,266.64528580542975,-9470.010696513054,0,0
12843.55,268.2166152873699,-9464.976347557691,0,0
12853.5625,269.47696084090825,-9459.748739785802,0,0
12863.575,270.10850791943176,-9455.137320635169,0,0
12873.5875,270.558039620392,-9450.668306497137,0,0
12883.6,270.2331431000686,-9445.827124822563,0,0
12893.6125,269.9984150237466,-9441.071801536611,0,0
12903.625,268.7548733487772,-9436.225183145367,0,0
12913.6375,267.34189915723846,-9431.383876752756,0,0
12923.65,265.88659717070715,-9425.353301235986,0,0
12933.6625,264.00057575308074,-9419.996056847225,0,0
12943.675,261.97186102307194,-9414.256616049728,0,0
12953.6875,260.1965651880814,-9408.09844035454,0,0
12963.7,258.2041904539786,-9401.466518276715,0,0
12973.7125,256.3172260659808,-9394.828918273875,0,0
12983.725,254.7391406054827,-9388.375339773991,0,0
12993.7375,253.0160475471199,-9381.160942949478,0,0
13003.75,251.21804499475408,-9374.161918398931,0,0
13013.7625,249.6362002922494,-9367.07687786938,0,0
13023.775,248.59912503658902,-9359.760200525152,0,0
13033.7875,246.81905929311762,-9352.346630109632,0,0
13043.8,245.43312316846223,-9344.615764453341,0,0
13053.8125,244.5308104548512,-9337.425153330205,0,0
13063.825,242.8884624171576,-9330.136548005468,0,0
13073.8375,241.93005470467762,-9322.417154777468,0,0
13083.85,241.09073835206584,-9314.91316102022,0,0
13093.8625,240.2717995235726,-9307.1391564627,0,0
13103.875,239.38936920915347,-9299.686693772988,0,0
13113.8875,238.47319742439333,-9292.210630164707,0,0
13123.9,237.92603405566751,-9284.467080332446,0,0
13133.9125,237.41275396160117,-9277.125770829725,0,0
13143.925,236.8852891794192,-9269.06527659422,0,0
13153.9375,236.47025383005166,-9261.560569452511,0,0
13163.95,236.25137072607134,-9254.520647754765,0,0
13173.9625,235.5988977927022,-9246.678395961266,0,0
13183.975,235.8987567439176,-9239.255372541586,0,0
13193.9875,235.74095764690492,-9231.923753958017,0,0
13204.0,235.44988226742674,-9224.869322637347,0,0
13214.0125,235.34942154707144,-9217.587672547366,0,0
13224.025,235.61934435789703,-9210.09621639196,0,0
13234.0375,235.89135478790945,-9202.67619167454,0,0
13244.05,235.7374906168017,-9196.046464915464,0,0
13254.0625,235.83390577115532,-9188.958284044142,0,0
13264.075,236.47639516662613,-9181.93165879243,0,0
13274.0875,236.1539203676934,-9175.659429055839,0,0
13284.1,236.48506164119206,-9168.925418117578,0,0
13294.1125,236.60931991008178,-9163.090782193118,0,0
13304.125,237.04153685539296,-9156.28731529245,0,0
13314.1375,236.83066194494617,-9150.442183810716,0,0
13324.15,236.58808902888114,-9144.022362464895,0,0
13334.1625,236.3522152631698,-9138.358898121829,0,0
13344.175,235.90281663314892,-9132.089102761372,0,0
13354.1875,234.90706827014776,-9126.487452309002,0,0
13364.2,234.15787723042635,-9120.86866754863,0,0
13374.2125,233.0821653675626,-9113.988498977202,0,0
13384.225,231.3949272512017,-9108.074225079612,0,0
13394.2375,230.98046515009437,-9101.930981678139,0,0
13404.25,229.47879587246044,-9095.623668974913,0,0
13414.2625,228.59012464687441,-9088.368100622405,0,0
13424.275,227.0738438308303,-9081.401908989796,0,0
13434.2875,225.24714062522116,-9074.571964758325,0,0
13444.3,223.98374057566303,-9067.262064983763,0,0
13454.3125,222.82363566260503,-9060.136814103302,0,0
13464.325,221.69788562557054,-9052.82615039002,0,0
13474.3375,220.95126727270952,-9045.528868989102,0,0
13484.35,220.52542539977742,-9038.393533455483,0,0
13494.3625,219.61223644835374,-9031.092823235069,0,0
13504.375,219.4085336239071,-9023.424848180035,0,0
13514.3875,218.64210947223583,-9016.589948538238,0,0
13524.4,217.93959174382357,-9008.805926138684,0,0
13534.4125,217.58220498165124,-9000.580063956111,0,0
13544.425,218.106786267981,-8993.541449937402,0,0
13554.4375,217.3715150650953,-8986.964996696526,0,0
13564.45,217.1989438885532,-8978.754212015667,0,0
13574.4625,217.86911198122354,-8971.253031331635,0,0
13584.475,217.52578640843987,-8964.694787358472,0,0
13594.4875,217.73159926972457,-8956.478741310048,0,0
13604.5,218.64052694474478,-8949.87847096747,0,0
13614.5125,219.27639865354266,-8942.340823250102,0,0
13624.525,219.33155072008168,-8935.916227233805,0,0
13634.5375,220.4738717458974,-8928.58785759846,0,0
13644.55,220.34628875547813,-8922.249361703229,0,0
13654.5625,222.63816229299857,-8915.881570413349,0,0
13664.575,222.9593573427632,-8908.736357216234,0,0
13674.5875,223.4765871497381,-8903.60047350792,0,0
13684.6,224.86849427147214,-8898.278270507426,0,0
13694.6125,225.56560899679724,-8892.098309629513,0,0
13704.625,225.7812497821851,-8886.983270618657,0,0
13714.6375,225.4552179805016,-8882.453657249935,0,0
13724.65,225.12199500005855,-8877.580178286535,0,0
13734.6625,224.4571525557565,-8872.746568662264,0,0
13744.675,223.72661761853104,-8867.432829885429,0,0
