Frequency (Hz),Impedance (ohms),Phase (Radians),Temperature (C),Humidity (%)
10000.0,4279.980220393309,-6477.120337157559,0,0
10010.0125,4274.454887560385,-6473.81705623955,0,0
10020.025,4269.007699325238,-6471.118139419324,0,0
10030.0375,4263.855687595098,-6467.839891504372,0,0
10040.05,4258.53553161294,-6465.1407526160365,0,0
10050.0625,4253.084072289573,-6462.11832674409,0,0
10060.075,4247.841020593184,-6459.44108208666,0,0
10070.0875,4242.614211070952,-6457.077908398299,0,0
10080.1,4236.997124638462,-6454.041883063373,0,0
10090.1125,4232.008414172916,-6451.093900167883,0,0
10100.125,4227.124170873795,-6448.254925234931,0,0
10110.1375,4221.545309166652,-6445.535592366965,0,0
10120.15,4216.3268025773195,-6442.907332888318,0,0
10130.1625,4211.398842520956,-6440.1647055835,0,0
10140.175,4206.158031644149,-6437.491411956472,0,0
10150.1875,4200.447681476493,-6434.584519649443,0,0
10160.2,4195.652135868824,-6431.734590385601,0,0
10170.2125,4190.045523675612,-6429.024456214787,0,0
10180.225,4185.054761069588,-6426.507022534521,0,0
10190.2375,4179.825660438413,-6423.506258107887,0,0
10200.25,4174.603914606707,-6420.857121229409,0,0
10210.2625,4169.493232031682,-6417.93230871164,0,0
10220.275,4164.16002834809,-6415.440485405922,0,0
10230.2875,4158.8623917098275,-6412.446229025944,0,0
10240.3,4153.497684550318,-6409.911370720956,0,0
10250.3125,4148.277751022306,-6407.334224598432,0,0
10260.325,4143.201556300743,-6404.499586791634,0,0
10270.3375,4138.291008788095,-6401.531473661843,0,0
10280.35,4132.782087490575,-6398.597345235803,0,0
10290.3625,4127.5767544574055,-6396.016300516929,0,0
10300.375,4122.515151927048,-6393.26176350466,0,0
10310.3875,4117.121530117362,-6390.341651525045,0,0
10320.4,4112.33784208703,-6387.743647559918,0,0
10330.4125,4107.101194372824,-6384.7263505343935,0,0
10340.425,4102.1257325203505,-6382.003348616854,0,0
10350.4375,4097.219803494628,-6379.330716335589,0,0
10360.45,4091.8867818776234,-6376.210852000223,0,0
10370.4625,4086.930536081516,-6373.5436740891955,0,0
10380.475,4081.8077373844335,-6370.906984209372,0,0
10390.4875,4076.5663547977024,-6368.030437155745,0,0
10400.5,4071.6821274097647,-6365.194450268151,0,0
10410.5125,4066.7674216993496,-6362.332202533239,0,0
10420.525,4061.482911950279,-6359.896317395085,0,0
10430.5375,4056.5906263944025,-6357.026391111432,0,0
10440.55,4051.4757809970583,-6354.233023869204,0,0
10450.5625,4046.4734619721394,-6351.448335680244,0,0
10460.575,4041.611535239387,-6348.423859877293,0,0
10470.5875,4036.447832717381,-6345.671083628,0,0
10480.6,4031.8229174551207,-6342.995374762234,0,0
10490.6125,4026.616663335256,-6340.211790652989,0,0
10500.625,4021.6827816377295,-6337.276102638935,0,0
10510.6375,4016.524966076319,-6334.675325805359,0,0
10520.65,4011.7461035217775,-6331.74733243037,0,0
10530.6625,4006.9103642378936,-6329.231105293679,0,0
10540.675,4001.8492562735737,-6326.169375391338,0,0
10550.6875,3996.7911654604104,-6323.394082593977,0,0
10560.7,3992.181873163472,-6320.796742142692,0,0
10570.7125,3986.7150734962274,-6317.478594493319,0,0
10580.725,3982.2054841619856,-6314.7083649538945,0,0
10590.7375,3976.865807225668,-6311.557778226346,0,0
10600.75,3972.1320714811127,-6308.716677020061,0,0
10610.7625,3967.216703925214,-6305.9112305530525,0,0
10620.775,3962.6223513403497,-6303.041597643437,0,0
10630.7875,3957.6604974246375,-6300.555097924052,0,0
10640.8,3952.5941256261576,-6297.759402322245,0,0
10650.8125,3947.862768176501,-6295.021288200796,0,0
10660.825,3943.27909282287,-6292.2375670167185,0,0
10670.8375,3938.270398331087,-6289.527836294867,0,0
10680.85,3933.3813162329866,-6286.749540129703,0,0
10690.8625,3928.6695279718515,-6284.033939640234,0,0
10700.875,3923.8866824594006,-6281.406707271001,0,0
10710.8875,3919.029538232065,-6278.473220939058,0,0
10720.9,3914.3633174193933,-6275.780545830518,0,0
10730.9125,3909.3389138108937,-6272.787298447713,0,0
10740.925,3904.5400082464535,-6269.904934981085,0,0
10750.9375,3899.8834511893656,-6267.270841934444,0,0
10760.95,3895.1702372755535,-6264.418691420002,0,0
10770.9625,3890.586928943949,-6261.646142042312,0,0
10780.975,3885.771107671374,-6258.913586691979,0,0
10790.9875,3881.043096628644,-6255.914848622663,0,0
10801.0,3876.2430492985964,-6253.345096168154,0,0
10811.0125,3871.52941812157,-6250.841391906409,0,0
10821.025,3866.778314482488,-6247.851996995405,0,0
10831.0375,3862.180627645807,-6244.930523868683,0,0
10841.05,3857.5378556117807,-6242.093835269513,0,0
10851.0625,3852.7908611143184,-6239.08485586329,0,0
10861.075,3848.1247675131044,-6236.3479470714365,0,0
10871.0875,3843.413188831046,-6233.338487857905,0,0
10881.1,3838.843520024682,-6230.657188612607,0,0
10891.1125,3834.312723317773,-6227.838292121925,0,0
10901.125,3829.68166312743,-6224.893928079328,0,0
10911.1375,3825.114397647901,-6222.020742708358,0,0
10921.15,3820.535374832443,-6219.50800052806,0,0
10931.1625,3815.9218099229793,-6216.608622267647,0,0
10941.175,3811.1896954703693,-6213.762049843957,0,0
10951.1875,3806.6793705535792,-6210.922215367254,0,0
10961.2,3802.139612130142,-6208.261101941649,0,0
10971.2125,3797.506596766533,-6205.408031072981,0,0
10981.225,3793.0287233032454,-6202.698295055234,0,0
10991.2375,3788.5942345639037,-6199.755560070605,0,0
11001.25,3783.5686069151197,-6196.8251237943505,0,0
11011.2625,3779.070735984981,-6194.13734168552,0,0
11021.275,3774.529230372812,-6191.240560156355,0,0
11031.2875,3770.266517020799,-6188.4720617100675,0,0
11041.3,3765.8756952255844,-6185.547528154703,0,0
11051.3125,3761.303169618383,-6182.8433439102055,0,0
11061.325,3756.7698957386533,-6180.194066809321,0,0
11071.3375,3752.6850351830217,-6177.3644824306475,0,0
11081.35,3748.2377567006756,-6174.724679506441,0,0
11091.3625,3743.59326718064,-6171.797222598936,0,0
11101.375,3739.3922835029985,-6168.967224397002,0,0
11111.3875,3735.0749508340064,-6166.16544752713,0,0
11121.4,3730.8948217922493,-6163.441577069358,0,0
11131.4125,3726.4499722849177,-6160.819069811365,0,0
11141.425,3722.0626868139307,-6158.237469541531,0,0
11151.4375,3717.4049938687017,-6155.438470041041,0,0
11161.45,3713.0899344676245,-6152.752502983571,0,0
11171.4625,3708.4078115930574,-6150.318014115835,0,0
11181.475,3704.0794328220454,-6147.53201102684,0,0
11191.4875,3699.6743772863674,-6144.907115967429,0,0
11201.5,3695.0615282329372,-6142.144277260857,0,0
11211.5125,3690.60339897708,-6139.510250044394,0,0
11221.525,3686.509509069981,-6136.589002239879,0,0
11231.5375,3682.118713323038,-6133.672676037447,0,0
11241.55,3677.477479930988,-6131.018283655985,0,0
11251.5625,3673.131822045585,-6128.15676219207,0,0
11261.575,3669.0748501489484,-6125.672488552388,0,0
11271.5875,3664.5202384826307,-6122.846454455993,0,0
11281.6,3660.1332684410936,-6120.031411341294,0,0
11291.6125,3655.65276247421,-6117.3484214221035,0,0
11301.625,3651.4665929175194,-6114.7548489014,0,0
11311.6375,3647.110879839023,-6111.491265242692,0,0
11321.65,3643.004801001339,-6108.962488470249,0,0
11331.6625,3638.412601074246,-6106.413060609169,0,0
11341.675,3634.1907530024,-6103.651983719544,0,0
11351.6875,3629.853409334485,-6100.845510121253,0,0
11361.7,3625.6669982482085,-6097.892198825302,0,0
11371.7125,3621.526076457292,-6095.160481162911,0,0
11381.725,3617.297665122328,-6092.394061682372,0,0
11391.7375,3613.025021077715,-6089.771794843392,0,0
11401.75,3608.639359689862,-6087.10782293781,0,0
11411.7625,3604.4596692659193,-6084.279549832244,0,0
11421.775,3600.1624121949567,-6081.514993817866,0,0
11431.7875,3596.1088301571654,-6078.933259002856,0,0
11441.8,3591.75041769928,-6076.1166934878565,0,0
11451.8125,3587.7247129161647,-6073.055535106608,0,0
11461.825,3583.655321662733,-6070.597712374551,0,0
11471.8375,3579.420400424148,-6067.737915030682,0,0
11481.85,3575.1631357596198,-6065.161668754748,0,0
11491.8625,3571.1054716460767,-6062.188589589038,0,0
11501.875,3566.752727654431,-6059.576414903523,0,0
11511.8875,3562.927282021193,-6056.777633311586,0,0
11521.9,3558.82010567752,-6054.283002990263,0,0
11531.9125,3554.2846612440867,-6051.5235142053825,0,0
11541.925,3550.291180290047,-6048.692950589986,0,0
11551.9375,3546.313244958063,-6045.94778209591,0,0
11561.95,3542.158648931546,-6043.608966801023,0,0
11571.9625,3537.860246390773,-6040.651103070307,0,0
11581.975,3533.9681880570374,-6037.8955167637105,0,0
11591.9875,3529.628790867317,-6035.280248124445,0,0
11602.0,3525.6840380676476,-6032.461591952717,0,0
11612.0125,3521.486928273,-6029.933899953346,0,0
11622.025,3517.308345663207,-6027.254990939423,0,0
11632.0375,3513.124905930751,-6024.487843474294,0,0
11642.05,3509.0546443062985,-6021.8502845881985,0,0
11652.0625,3505.162855289231,-6018.738336703901,0,0
11662.075,3500.9080876500807,-6016.468797891308,0,0
11672.0875,3497.042187119815,-6013.494489900745,0,0
11682.1,3492.873954990588,-6010.694073109537,0,0
11692.1125,3488.837297775006,-6008.334440653199,0,0
11702.125,3484.866685011028,-6005.416460364845,0,0
11712.1375,3480.8710833194677,-6002.9391565389,0,0
11722.15,3476.974028555136,-5999.987170190609,0,0
11732.1625,3472.9346675410593,-5997.23791712159,0,0
11742.175,3469.0179443284815,-5994.512506274638,0,0
11752.1875,3464.939637140553,-5991.845580046191,0,0
11762.2,3460.9902344028055,-5989.113396943266,0,0
11772.2125,3456.922867446388,-5986.541802318854,0,0
11782.225,3452.9229277378363,-5983.891612360515,0,0
11792.2375,3448.8596226021386,-5981.221236448362,0,0
11802.25,3444.9209522766055,-5978.454120540126,0,0
11812.2625,3440.866771267823,-5975.790356116616,0,0
11822.275,3437.2497076124832,-5973.18931574881,0,0
11832.2875,3433.294211840808,-5970.557166396779,0,0
11842.3,3429.2192288894125,-5968.010514371719,0,0
11852.3125,3425.1088094712354,-5965.336149879992,0,0
11862.325,3421.350391195177,-5962.565737921057,0,0
11872.3375,3417.463555406279,-5959.857053278505,0,0
11882.35,3413.306613966064,-5957.316102860655,0,0
11892.3625,3409.485871689162,-5954.375337648063,0,0
11902.375,3405.5828048446856,-5951.805560437519,0,0
11912.3875,3401.4920848340976,-5949.289185813309,0,0
11922.4,3397.9691354006163,-5946.532863850661,0,0
11932.4125,3393.6366577464573,-5943.750770577773,0,0
11942.425,3389.9434508289387,-5941.149985304535,0,0
11952.4375,3385.7719273025596,-5938.49112160239,0,0
11962.45,3382.1184626507306,-5936.021241194161,0,0
11972.4625,3378.27416708074,-5933.130768924712,0,0
11982.475,3374.3389298453476,-5930.485383653913,0,0
11992.4875,3370.3693391452443,-5927.900526444305,0,0
12002.5,3366.769545627498,-5925.187570882709,0,0
12012.5125,3362.777328214647,-5922.278479458853,0,0
12022.525,3358.9100777960243,-5919.903573242347,0,0
12032.5375,3354.9791109557405,-5917.229247141258,0,0
12042.55,3351.2351766566794,-5914.378400703624,0,0
12052.5625,3347.3424006258665,-5911.623382908605,0,0
12062.575,3343.3639436134126,-5908.89575185926,0,0
12072.5875,3339.6291931092587,-5906.126997376217,0,0
12082.6,3335.946956978346,-5903.736964155836,0,0
12092.6125,3331.8041058749595,-5900.899925991608,0,0
12102.625,3328.383574981224,-5897.882841848589,0,0
12112.6375,3324.678418739292,-5895.386100368122,0,0
12122.65,3320.7089979427496,-5892.708222808804,0,0
12132.6625,3316.860566933225,-5889.860858340095,0,0
12142.675,3313.0878375829816,-5887.322752673848,0,0
12152.6875,3309.3937044714608,-5884.689454356428,0,0
12162.7,3305.6456768810813,-5881.631771017651,0,0
12172.7125,3301.930340474288,-5879.020992688002,0,0
12182.725,3297.8617338806266,-5876.397139150335,0,0
12192.7375,3294.4198052069387,-5873.701460625266,0,0
12202.75,3290.705699113662,-5870.834605062122,0,0
12212.7625,3286.9898562061317,-5868.124998757678,0,0
12222.775,3283.3203850251916,-5865.30671814706,0,0
12232.7875,3279.804157967259,-5862.576538078829,0,0
12242.8,3276.176455403916,-5860.15958236703,0,0
12252.8125,3272.4266183092036,-5857.24451424335,0,0
12262.825,3268.823837046146,-5854.866742323085,0,0
12272.8375,3265.2513268559046,-5851.932560668175,0,0
12282.85,3261.684397215533,-5849.06197410131,0,0
12292.8625,3257.876059221079,-5846.738737407499,0,0
12302.875,3254.6304888882355,-5843.86627779236,0,0
12312.8875,3250.933616040816,-5841.3396407508335,0,0
12322.9,3247.4247505898074,-5838.787907199178,0,0
12332.9125,3243.816621213633,-5836.287427987467,0,0
12342.925,3240.078056638036,-5833.596282820323,0,0
12352.9375,3236.3127955857135,-5831.011983475727,0,0
12362.95,3232.783499625253,-5828.631067469407,0,0
12372.9625,3228.9357645316722,-5825.8930298096275,0,0
12382.975,3225.5125877867067,-5823.226587180362,0,0
12392.9875,3221.901907210012,-5820.6445165665455,0,0
12403.0,3218.188453931863,-5817.933954082758,0,0
12413.0125,3214.614271048147,-5815.523871977151,0,0
12423.025,3210.9057599847893,-5812.811083708621,0,0
12433.0375,3207.256480829324,-5810.106942542738,0,0
12443.05,3203.6828744070776,-5807.234824373007,0,0
12453.0625,3199.9620033558795,-5804.69783786584,0,0
12463.075,3196.411380599078,-5801.812051144168,0,0
12473.0875,3192.7564688032603,-5799.019672873675,0,0
12483.1,3189.2438125048593,-5796.758314358798,0,0
12493.1125,3185.2500412556947,-5793.7148434912915,0,0
12503.125,3182.0165500916437,-5791.134641209027,0,0
12513.1375,3178.48608892056,-5788.272673110325,0,0
12523.15,3174.908231420425,-5785.441138581104,0,0
12533.1625,3171.3050600770853,-5782.721161259714,0,0
12543.175,3167.967721475518,-5780.112674830164,0,0
12553.1875,3164.51585986249,-5777.09054749798,0,0
12563.2,3161.0032796562987,-5774.3038372402625,0,0
12573.2125,3157.5756750196906,-5771.361186779057,0,0
12583.225,3154.2528916800957,-5768.424542288633,0,0
12593.2375,3151.082567824175,-5765.512679396546,0,0
12603.25,3147.777882143955,-5762.813802645287,0,0
12613.2625,3144.7118036608767,-5760.0060247615,0,0
12623.275,3141.6111770260536,-5757.321889790495,0,0
12633.2875,3138.696694974895,-5754.3720485327,0,0
12643.3,3135.7272060311375,-5751.862218876113,0,0
12653.3125,3132.765453355671,-5749.580336372938,0,0
12663.325,3129.5687960536143,-5747.403168489492,0,0
12673.3375,3126.323548283207,-5745.261478324441,0,0
12683.35,3123.172106042352,-5743.026286579094,0,0
12693.3625,3119.7660279924653,-5740.674226234358,0,0
12703.375,3115.9805157928367,-5738.437467710913,0,0
12713.3875,3112.4342146035024,-5736.176932799556,0,0
12723.4,3108.6701002694,-5733.622449620315,0,0
12733.4125,3105.0565234132414,-5731.067818447137,0,0
12743.425,3101.6505495137512,-5728.552145796383,0,0
12753.4375,3098.311958801794,-5725.988384732895,0,0
12763.45,3094.719830041239,-5723.342853953089,0,0
12773.4625,3091.2509571134733,-5720.590379746905,0,0
12783.475,3087.933206144355,-5718.250042684723,0,0
12793.4875,3084.2856771282945,-5715.563229170299,0,0
12803.5,3080.9997274315338,-5712.741643380972,0,0
12813.5125,3077.9567074315964,-5710.298667994925,0,0
12823.525,3074.4220073732386,-5707.551926299118,0,0
12833.5375,3071.0480656642667,-5705.001870633662,0,0
12843.55,3067.8377857263717,-5702.168165442292,0,0
12853.5625,3064.5320657760594,-5699.678515998673,0,0
12863.575,3061.239383839291,-5697.018683273247,0,0
12873.5875,3057.968218765483,-5694.490027489874,0,0
12883.6,3054.9092206263717,-5691.667482838128,0,0
12893.6125,3051.661798010668,-5688.964171671392,0,0
12903.625,3048.413803173483,-5686.303133817964,0,0
12913.6375,3045.3360719295047,-5683.809649577562,0,0
12923.65,3042.3145076632563,-5681.116032850417,0,0
12933.6625,3039.1307124748723,-5678.749589355434,0,0
12943.675,3036.0570040136936,-5675.904461102938,0,0
12953.6875,3033.0244224211356,-5673.646781372689,0,0
12963.7,3029.8235456674474,-5671.105450021045,0,0
12973.7125,3026.6114638981767,-5668.608084748906,0,0
12983.725,3023.565813474252,-5666.19621485769,0,0
12993.7375,3020.771565776062,-5663.64646110476,0,0
13003.75,3017.45930805461,-5661.220161760825,0,0
13013.7625,3014.367687727133,-5658.746369078297,0,0
13023.775,3011.2411026217815,-5656.425851670865,0,0
13033.7875,3008.2877086901594,-5653.88208243881,0,0
13043.8,3005.1472469069386,-5651.6617504558135,0,0
13053.8125,3001.966941460869,-5649.209545971509,0,0
13063.825,2999.1469449834067,-5646.835164145436,0,0
13073.8375,2995.9531798724065,-5644.591891173017,0,0
13083.85,2992.8361598282713,-5642.2263237747475,0,0
13093.8625,2989.5746500649384,-5640.123457371906,0,0
13103.875,2986.470064711064,-5637.898609784653,0,0
13113.8875,2983.2885942333746,-5635.575036652487,0,0
13123.9,2980.07927526583,-5633.447146612806,0,0
13133.9125,2976.6257781775844,-5631.038671738613,0,0
13143.925,2973.5060963588717,-5628.717673999787,0,0
13153.9375,2970.0191064081114,-5626.250624593209,0,0
13163.95,2966.848994966406,-5624.045890194017,0,0
13173.9625,2963.563207884358,-5621.423091459994,0,0
13183.975,2960.3664329717567,-5619.069903844353,0,0
13193.9875,2957.15464358736,-5616.597367929589,0,0
13204.0,2953.8179824563235,-5614.128564502019,0,0
13214.0125,2950.6382620580393,-5611.639582692157,0,0
13224.025,2947.6158719442274,-5609.006123052749,0,0
13234.0375,2944.3122165209165,-5606.694485458608,0,0
13244.05,2941.086577204679,-5604.394082724896,0,0
13254.0625,2937.96929895657,-5602.078370876705,0,0
13264.075,2934.7043326334165,-5599.672423367117,0,0
13274.0875,2931.6742611465547,-5597.287097747581,0,0
13284.1,2928.5466126952265,-5594.74481462514,0,0
13294.1125,2925.411605377596,-5592.2756958710825,0,0
13304.125,2922.134797469544,-5590.030506339232,0,0
13314.1375,2918.8606258936243,-5587.438703379327,0,0
13324.15,2915.665282822821,-5585.287308205311,0,0
13334.1625,2912.529686460376,-5582.923689742349,0,0
13344.175,2909.0901935919665,-5580.078891517236,0,0
13354.1875,2906.1256481498617,-5577.764075431977,0,0
13364.2,2903.1825538949824,-5575.550429893861,0,0
13374.2125,2899.7636691681923,-5572.871391560534,0,0
13384.225,2896.6067832672875,-5570.356528124738,0,0
13394.2375,2893.6230020383027,-5568.104751728985,0,0
13404.25,2890.1880302617956,-5565.612654487592,0,0
13414.2625,2887.3746217978737,-5563.180570510521,0,0
13424.275,2883.9082069827978,-5560.501160847773,0,0
13434.2875,2881.321099140037,-5558.282342367512,0,0
13444.3,2877.7899066311843,-5555.626780237435,0,0
13454.3125,2874.782264327063,-5553.409393397353,0,0
13464.325,2871.6114001674337,-5550.698062073822,0,0
13474.3375,2868.610463989109,-5548.338335275524,0,0
13484.35,2865.646005058029,-5545.945787196807,0,0
13494.3625,2862.3420380850025,-5543.209093891324,0,0
13504.375,2859.2245906554085,-5541.241460161461,0,0
13514.3875,2856.435472515562,-5538.504589357434,0,0
13524.4,2853.191576108294,-5535.733928903491,0,0
13534.4125,2850.2220508000064,-5533.233244908573,0,0
13544.425,2846.8063060943227,-5531.076185949147,0,0
13554.4375,2844.1440701162524,-5528.7111016214585,0,0
13564.45,2840.9792518267755,-5526.4133398325075,0,0
13574.4625,2838.047692265595,-5523.825600546236,0,0
13584.475,2835.2340433051286,-5521.378478359674,0,0
13594.4875,2832.130129458471,-5518.79506343923,0,0
13604.5,2828.9777796412955,-5516.670411213198,0,0
13614.5125,2825.9644528320473,-5513.862547319759,0,0
13624.525,2823.0931495085024,-5511.2851417634865,0,0
13634.5375,2820.092602117609,-5508.957699663383,0,0
13644.55,2816.8245305132004,-5506.3262020569555,0,0
13654.5625,2813.9703838003556,-5503.737046884426,0,0
13664.575,2811.294359136991,-5501.657241285835,0,0
13674.5875,2808.1824291791277,-5499.192631746321,0,0
13684.6,2804.952921794544,-5496.650070053285,0,0
13694.6125,2802.241948594033,-5493.881931820989,0,0
13704.625,2799.341216479798,-5491.807204761889,0,0
13714.6375,2796.1280509629555,-5489.134295400299,0,0
13724.65,2793.4056094679595,-5486.527008036485,0,0
13734.6625,2790.2119043502003,-5484.508747265931,0,0
13744.675,2787.5211957848896,-5481.807682727572,0,0
13754.6875,2784.1944998560552,-5479.526610406795,0,0
13764.7,2781.687428473409,-5476.967882221981,0,0
13774.7125,2778.4995863216454,-5474.706156298177,0,0
13784.725,2775.857375294183,-5472.256201907794,0,0
