Frequency (Hz),Impedance (ohms),Phase (Radians),Temperature (C),Humidity (%)
10000.0,274.8811519651276,-12066.929244713356,0,0
10010.0125,274.8785382755115,-12054.639803669306,0,0
10020.025,274.1192958961809,-12042.795883500195,0,0
10030.0375,273.383986643853,-12029.96534624185,0,0
10040.05,272.85214115077264,-12018.040301058822,0,0
10050.0625,272.5981765822263,-12005.948108415942,0,0
10060.075,272.20673666643336,-11992.694643197063,0,0
10070.0875,272.5280157830151,-11980.327265189784,0,0
10080.1,272.31057251689396,-11967.682421018495,0,0
10090.1125,272.449250757571,-11955.544840540564,0,0
10100.125,272.47786632570376,-11942.91593514653,0,0
10110.1375,273.7668920575091,-11929.866750611624,0,0
10120.15,274.3150433761513,-11918.24584448763,0,0
10130.1625,275.0476067925096,-11905.14153390039,0,0
10140.175,276.64784083094963,-11893.636083945943,0,0
10150.1875,278.05915734731474,-11881.658008224149,0,0
10160.2,279.3925368215774,-11870.019472393893,0,0
10170.2125,281.8007840858554,-11858.703248212056,0,0
10180.225,283.62691086385496,-11848.367642607349,0,0
10190.2375,285.67106531676257,-11838.934821916586,0,0
10200.25,287.2849542964099,-11829.708553379469,0,0
10210.2625,287.46270308261626,-11822.151839599897,0,0
10220.275,287.70571916516263,-11813.834233283404,0,0
10230.2875,285.7243346176487,-11805.814648584259,0,0
10240.3,283.36169827427017,-11796.518943617111,0,0
10250.3125,280.5368806596289,-11787.12768830862,0,0
10260.325,277.9783713093544,-11776.287409295974,0,0
10270.3375,275.53851537805014,-11765.395549110232,0,0
10280.35,273.4378262000818,-11753.736423886477,0,0
10290.3625,271.17697558278087,-11741.63234392293,0,0
10300.375,270.0170186646559,-11729.912549301898,0,0
10310.3875,269.05186896950175,-11718.33591907656,0,0
10320.4,267.5383309657718,-11706.020814524534,0,0
10330.4125,266.9095185401333,-11694.401124014983,0,0
10340.425,266.18476203877,-11682.8255348881,0,0
10350.4375,265.6379634326694,-11670.695428542867,0,0
10360.45,264.6924347388577,-11659.051060991555,0,0
10370.4625,263.9092509596569,-11647.398510133959,0,0
10380.475,263.6145508326162,-11635.67971385713,0,0
10390.4875,262.6942806000856,-11624.241814232118,0,0
10400.5,262.68310792917185,-11612.854575514986,0,0
10410.5125,261.8939967215293,-11601.530889036832,0,0
10420.525,261.94260563672833,-11589.862100075567,0,0
10430.5375,261.4440553401728,-11578.379541935039,0,0
10440.55,260.71227772954506,-11566.888010020402,0,0
10450.5625,260.6183064703141,-11555.890611485203,0,0
10460.575,260.288308224232,-11544.838910469438,0,0
10470.5875,259.9549196008114,-11533.052045868191,0,0
10480.6,259.68863350087605,-11522.10497102999,0,0
10490.6125,259.1402335905375,-11510.846226327127,0,0
10500.625,258.8324730841031,-11499.454697863439,0,0
10510.6375,258.89062785587055,-11488.632013127091,0,0
10520.65,258.3444875291768,-11477.893340936092,0,0
10530.6625,258.0866809109363,-11466.356067668208,0,0
10540.675,258.0704558154167,-11455.167776647872,0,0
10550.6875,257.64254787798524,-11444.065873087982,0,0
10560.7,257.34455117804384,-11433.196454186242,0,0
10570.7125,257.2601175734661,-11422.313788154677,0,0
10580.725,256.82337179203154,-11411.253604046238,0,0
10590.7375,256.639883773113,-11400.59959036222,0,0
10600.75,256.17301067200856,-11389.601073843847,0,0
10610.7625,256.06901274830494,-11378.645888017592,0,0
10620.775,255.86978216982718,-11368.40298835708,0,0
10630.7875,255.74501436096824,-11357.025540239634,0,0
10640.8,255.2528080370199,-11346.279891310343,0,0
10650.8125,255.1581030281979,-11335.558290186143,0,0
10660.825,255.13869251413433,-11324.238274207486,0,0
10670.8375,254.7823738647273,-11313.746196052176,0,0
10680.85,254.67317593519198,-11302.838094218467,0,0
10690.8625,254.36659751634664,-11292.230143992636,0,0
10700.875,254.51220726741627,-11281.51873683839,0,0
10710.8875,253.88716832630683,-11271.287888119363,0,0
10720.9,253.66960131456653,-11260.183695114902,0,0
10730.9125,253.5094701689391,-11249.552353012323,0,0
10740.925,253.58341454044256,-11238.812963708246,0,0
10750.9375,253.51535559176648,-11228.705977568781,0,0
10760.95,253.05480801771913,-11217.640317962894,0,0
10770.9625,252.35586024790953,-11207.204178184207,0,0
10780.975,252.82856582558222,-11197.06694928721,0,0
10790.9875,252.5560379600174,-11186.35601143829,0,0
10801.0,252.09546141538172,-11175.212883449887,0,0
10811.0125,252.22758751769297,-11165.327987288809,0,0
10821.025,251.86918732474436,-11154.707543021612,0,0
10831.0375,251.87994969511715,-11144.14824912125,0,0
10841.05,251.58393052777325,-11133.625213669846,0,0
10851.0625,251.52217534951194,-11123.642152480565,0,0
10861.075,251.58814553072392,-11113.144341587948,0,0
10871.0875,250.95141831528022,-11102.519336930533,0,0
10881.1,250.99974050062937,-11092.189322416149,0,0
10891.1125,250.45732952354223,-11081.967648634,0,0
10901.125,250.7999278495465,-11071.42934605881,0,0
10911.1375,250.8156454410932,-11061.329743953836,0,0
10921.15,250.70089375657682,-11050.935803063365,0,0
10931.1625,250.5818975082925,-11040.768297267958,0,0
10941.175,250.42186883553296,-11030.541851987253,0,0
10951.1875,250.43821292445634,-11020.29220420475,0,0
10961.2,250.00795151310246,-11010.178150063,0,0
10971.2125,249.86875443474204,-11000.203330655453,0,0
10981.225,250.08912211257325,-10990.169245978153,0,0
10991.2375,249.68029252344203,-10979.955697572226,0,0
11001.25,250.00724203749584,-10969.67319130511,0,0
11011.2625,249.87191069732447,-10959.852390029218,0,0
11021.275,249.68677649992372,-10949.629203162058,0,0
11031.2875,249.90282477282864,-10939.239470348339,0,0
11041.3,249.6076534248919,-10929.665533940566,0,0
11051.3125,249.78182140368915,-10919.696000482436,0,0
11061.325,249.34070128976694,-10909.869545426613,0,0
11071.3375,249.57424945067433,-10899.909856952905,0,0
11081.35,249.21586018316887,-10889.783289592824,0,0
11091.3625,249.35531748629373,-10880.006759957389,0,0
11101.375,249.01620380562554,-10870.438865417462,0,0
11111.3875,249.3782257605065,-10860.031586170246,0,0
11121.4,248.91513873908298,-10850.226158042451,0,0
11131.4125,249.1399814802614,-10840.603873796936,0,0
11141.425,248.75164991285766,-10830.539869354574,0,0
11151.4375,248.86000252469267,-10820.459089654101,0,0
11161.45,248.5471833487505,-10811.213407220577,0,0
11171.4625,248.2211581354743,-10800.889149911754,0,0
11181.475,247.9454700580668,-10791.679877573142,0,0
11191.4875,247.8553158903481,-10781.67304386405,0,0
11201.5,247.6664505932854,-10771.729648917388,0,0
11211.5125,247.4972654209051,-10762.057214509032,0,0
11221.525,247.39304159480056,-10752.118932975138,0,0
11231.5375,247.23697773041093,-10742.198894829842,0,0
11241.55,247.16621395590542,-10732.705076473823,0,0
11251.5625,247.18990942545923,-10722.77631483915,0,0
11261.575,247.50660874180235,-10713.148178558116,0,0
11271.5875,246.95532078001966,-10703.49834573271,0,0
11281.6,246.95841420431532,-10693.953482473316,0,0
11291.6125,246.4713606040291,-10684.07165493341,0,0
11301.625,246.7200420476059,-10674.439845104604,0,0
11311.6375,246.8340096547951,-10664.7167117458,0,0
11321.65,246.60402002993675,-10655.248731924512,0,0
11331.6625,246.52948434983878,-10645.517577274746,0,0
11341.675,246.6026425575712,-10636.061748388463,0,0
11351.6875,246.2184538195237,-10626.62099538133,0,0
11361.7,246.65550104703516,-10616.435294202769,0,0
11371.7125,246.28281681451207,-10606.97911174277,0,0
11381.725,246.24301167644504,-10597.50295234063,0,0
11391.7375,245.72434664861706,-10588.114464413307,0,0
11401.75,245.90976011444306,-10577.14779444721,0,0
11411.7625,246.1468323919731,-10568.884200462044,0,0
11421.775,246.05531067172282,-10558.980669777997,0,0
11431.7875,246.64097916213936,-10549.453499846253,0,0
11441.8,246.41586244634226,-10540.125227225193,0,0
11451.8125,246.78563194047274,-10530.506108724918,0,0
11461.825,246.63144999898597,-10521.144966736192,0,0
11471.8375,246.66945104475192,-10511.453828467273,0,0
11481.85,246.56642111790785,-10502.149657470609,0,0
11491.8625,246.95851326969978,-10492.56440995893,0,0
11501.875,246.75230974643927,-10482.924955497772,0,0
11511.8875,246.98250542780534,-10473.768162443264,0,0
11521.9,247.07552002821706,-10463.836802557676,0,0
11531.9125,247.57559367289096,-10454.54305765234,0,0
11541.925,247.38218977796063,-10445.313582691295,0,0
11551.9375,248.09127200652324,-10435.946341996329,0,0
11561.95,247.82133534034833,-10426.287096256787,0,0
11571.9625,248.3540294522074,-10417.259081051656,0,0
11581.975,248.5145506240843,-10407.5973696474,0,0
11591.9875,248.77657655695316,-10398.473780783523,0,0
11602.0,249.91888509043147,-10389.144775251858,0,0
11612.0125,249.83443432347593,-10379.484910320045,0,0
11622.025,250.25540213893464,-10370.173246062428,0,0
11632.0375,250.55542265694007,-10361.39914107174,0,0
11642.05,251.68399836470044,-10352.094674080789,0,0
11652.0625,252.03809392636617,-10342.706995525268,0,0
11662.075,252.8364418304405,-10333.322217919549,0,0
11672.0875,253.35061971521614,-10323.965003477077,0,0
11682.1,253.79020348599113,-10315.08224104057,0,0
11692.1125,254.2104388407185,-10306.641773321593,0,0
11702.125,255.5382782241643,-10297.23363671822,0,0
11712.1375,256.1195851312272,-10288.756631787286,0,0
11722.15,256.810531181112,-10280.225382971039,0,0
11732.1625,257.940645763153,-10271.77385740516,0,0
11742.175,258.2920938017599,-10263.005265471691,0,0
11752.1875,259.1867907822981,-10255.018529616378,0,0
11762.2,259.605307024258,-10247.085303205164,0,0
11772.2125,259.7153232666102,-10238.739085991661,0,0
11782.225,260.02020992883524,-10230.20572329858,0,0
11792.2375,260.17851113977775,-10222.13519069621,0,0
11802.25,259.7395935624731,-10214.313093707238,0,0
11812.2625,259.8909773572017,-10205.600072212237,0,0
11822.275,259.72142067213605,-10197.234394138517,0,0
11832.2875,259.1726488661942,-10188.018687233953,0,0
11842.3,259.6709047906732,-10179.285063644009,0,0
11852.3125,259.03780433870884,-10170.404155166749,0,0
11862.325,259.6798136351059,-10161.421762994156,0,0
11872.3375,259.46786423000225,-10152.244641597905,0,0
11882.35,260.0265755927051,-10143.565388019233,0,0
11892.3625,261.03317877426053,-10134.067324464198,0,0
11902.375,261.207468693666,-10125.540813128777,0,0
11912.3875,262.661875694158,-10116.451710233176,0,0
11922.4,263.4271966707201,-10107.61076913685,0,0
11932.4125,264.5224316011182,-10099.203173088403,0,0
11942.425,265.71384237643554,-10090.793980095013,0,0
11952.4375,266.7420968338348,-10082.95337695744,0,0
11962.45,268.03761194214724,-10074.917287433162,0,0
11972.4625,269.05172636001436,-10067.235914749006,0,0
11982.475,269.9710242475252,-10059.436167469697,0,0
11992.4875,270.51136393886776,-10052.369105350228,0,0
12002.5,270.72962206008077,-10045.287221507193,0,0
12012.5125,270.89962777768943,-10038.019890118956,0,0
12022.525,270.6286223569992,-10030.933966988117,0,0
12032.5375,270.0990609536257,-10023.740058223158,0,0
12042.55,269.30634498244183,-10015.593088839241,0,0
12052.5625,268.2628029634015,-10007.748085375095,0,0
12062.575,267.4252103623053,-9999.02682645342,0,0
12072.5875,266.4597345347384,-9989.908860854679,0,0
12082.6,266.1749983323246,-9981.180180666699,0,0
12092.6125,265.72205504437807,-9971.484328380533,0,0
12102.625,265.6675450832689,-9961.770191604113,0,0
12112.6375,266.44537093729326,-9952.365253709097,0,0
12122.65,267.1790047955965,-9943.041123523262,0,0
12132.6625,267.8327586067665,-9933.584525433957,0,0
12142.675,269.39046346169624,-9923.874271637571,0,0
12152.6875,270.4461830334528,-9914.353015712724,0,0
12162.7,272.33679658346097,-9905.684966400511,0,0
12172.7125,274.06893920945004,-9896.677804812882,0,0
12182.725,276.0454970696286,-9887.713017335458,0,0
12192.7375,278.59239067714674,-9879.100225240943,0,0
12202.75,280.70709559196064,-9870.734394712503,0,0
12212.7625,283.6244271574477,-9862.392382900414,0,0
12222.775,286.32228354143507,-9854.213891946492,0,0
12232.7875,289.1721959952355,-9846.891707137731,0,0
12242.8,292.3429610006826,-9839.149895277142,0,0
12252.8125,295.09818200272605,-9832.521061825848,0,0
12262.825,298.4386751252219,-9825.112999007712,0,0
12272.8375,301.5711388780765,-9818.759906950309,0,0
12282.85,304.7254370200013,-9813.237395198668,0,0
12292.8625,307.9038661483095,-9807.472785423817,0,0
12302.875,311.07681070287373,-9802.289418247536,0,0
12312.8875,313.75288118076384,-9797.59023138973,0,0
12322.9,316.35688891529765,-9793.102098471612,0,0
12332.9125,318.83320875518433,-9789.668613641807,0,0
12342.925,321.1662559888089,-9786.003006861709,0,0
12352.9375,322.3915660007608,-9782.953606091802,0,0
12362.95,323.3270533931833,-9780.55317903218,0,0
12372.9625,323.5220976796991,-9777.588876983511,0,0
12382.975,322.7917520338377,-9775.632045095035,0,0
12392.9875,321.5086051358783,-9773.284930465412,0,0
12403.0,319.92130172063406,-9770.311269542637,0,0
12413.0125,317.2039535492109,-9767.676553877815,0,0
12423.025,314.0574343769047,-9764.628387360575,0,0
12433.0375,310.29558797165726,-9760.234205989364,0,0
12443.05,306.4035719048246,-9755.7122535564,0,0
12453.0625,302.06350314270406,-9750.62772520263,0,0
12463.075,297.6356044405332,-9744.335219650098,0,0
12473.0875,293.4897983774645,-9737.982842156562,0,0
12483.1,289.47589030201704,-9730.838876415672,0,0
12493.1125,285.71627256091955,-9723.275553097876,0,0
12503.125,282.425174249674,-9714.767704894797,0,0
12513.1375,279.91785619621004,-9707.151048795082,0,0
12523.15,277.3212883257867,-9698.782086471037,0,0
12533.1625,274.7522120493253,-9690.766156443242,0,0
12543.175,272.8214266047918,-9682.060183624431,0,0
12553.1875,271.07390199076883,-9673.636915449868,0,0
12563.2,269.2375635877937,-9665.81502437326,0,0
12573.2125,267.63739454765727,-9658.019024993602,0,0
12583.225,266.3255470045869,-9649.784799882533,0,0
12593.2375,264.85380655997517,-9641.52979637734,0,0
12603.25,263.3569637995012,-9634.13011693227,0,0
12613.2625,261.70850948356076,-9625.627136438858,0,0
12623.275,260.3311106630117,-9617.986835031374,0,0
12633.2875,259.01762758633436,-9609.683726605304,0,0
12643.3,257.09193994380576,-9601.568780984606,0,0
12653.3125,255.83996138773898,-9593.156677562873,0,0
12663.325,254.26662680623025,-9584.22265537314,0,0
12673.3375,253.32011114878742,-9575.507962638725,0,0
12683.35,252.1773720084304,-9567.036395745705,0,0
12693.3625,251.03224186944044,-9558.522654755645,0,0
12703.375,250.375813868629,-9549.727138748993,0,0
12713.3875,249.680726971659,-9540.53926998646,0,0
12723.4,249.2243852396501,-9531.422822036957,0,0
12733.4125,248.7826942605206,-9522.315801558227,0,0
12743.425,249.07699702349322,-9513.230851272525,0,0
12753.4375,249.89667788204702,-9504.345558644238,0,0
12763.45,250.41010588047322,-9495.553314977973,0,0
12773.4625,251.54844246289096,-9486.630702150183,0,0
12783.475,252.61900549446887,-9478.276242483687,0,0
12793.4875,253.99252298453055,-9469.862504394556,0,0
12803.5,255.90934211759335,-9461.902299911473,0,0
12813.5125,257.72739691982355,-9454.352790549003,0,0
12823.525,259.05908338904,-9446.90933416988,0,0
12833.5375,261.24583896418847,-9440.313314813335,0,0
12843.55,263.10087391239546,-9433.805549643614,0,0
12853.5625,265.1356202722921,-9428.044025682599,0,0
12863.575,266.31464023074864,-9422.277378235642,0,0
12873.5875,267.57891103714525,-9417.177361287158,0,0
12883.6,268.5384601933518,-9412.082319708066,0,0
12893.6125,268.6740214701553,-9407.280829048092,0,0
12903.625,268.5629347320176,-9402.471449067265,0,0
12913.6375,267.98920303355146,-9397.601708616112,0,0
12923.65,267.7238089420176,-9392.243982252163,0,0
12933.6625,266.17370971178275,-9387.519585460996,0,0
12943.675,265.14538187093035,-9381.683600660643,0,0
12953.6875,263.32587547904575,-9376.379237041803,0,0
12963.7,261.6937798169078,-9370.539559406903,0,0
12973.7125,260.1926109623915,-9364.578422636334,0,0
12983.725,258.20747547718213,-9358.13382649575,0,0
12993.7375,256.4931367813114,-9351.754017794836,0,0
13003.75,254.7248654030659,-9345.01083592438,0,0
13013.7625,253.16622439274306,-9338.266299313202,0,0
13023.775,251.59341008115987,-9331.265344974443,0,0
13033.7875,250.20400315747855,-9323.88917822297,0,0
13043.8,248.48447137716886,-9317.091718744252,0,0
13053.8125,247.16242572132,-9309.902413740592,0,0
13063.825,245.79897083706115,-9302.471282146225,0,0
13073.8375,245.14677358429364,-9295.187498313237,0,0
13083.85,243.75431307379003,-9287.891798924396,0,0
13093.8625,242.6634306482404,-9280.337611856685,0,0
13103.875,241.26535123428494,-9272.791176268272,0,0
13113.8875,240.966151611992,-9265.555954029449,0,0
13123.9,239.7716391823182,-9257.966529909849,0,0
13133.9125,239.2592849608119,-9250.240829436621,0,0
13143.925,238.71221622619686,-9243.015581676222,0,0
13153.9375,237.96256556533342,-9235.223765516917,0,0
13163.95,237.5859927104169,-9228.296100396694,0,0
13173.9625,237.16681733664308,-9220.558247784571,0,0
13183.975,236.91208600510527,-9213.239658482787,0,0
13193.9875,236.29170463173818,-9205.658126238393,0,0
13204.0,236.3753384173905,-9198.623588066279,0,0
13214.0125,235.40578988534304,-9191.798640718845,0,0
13224.025,235.8657538969109,-9183.763780688865,0,0
13234.0375,235.3987301780531,-9177.036436732204,0,0
13244.05,235.45694931657334,-9169.378687822866,0,0
13254.0625,235.2505468239153,-9162.77888983509,0,0
13264.075,235.5840824773052,-9155.430274269256,0,0
13274.0875,235.604654853688,-9148.940497652253,0,0
13284.1,235.54322036665548,-9141.825579226414,0,0
13294.1125,236.0106176316615,-9134.93839838908,0,0
13304.125,235.5519977019691,-9128.917434297535,0,0
13314.1375,236.23577996426906,-9122.312806924116,0,0
13324.15,235.89723216940027,-9115.26560826824,0,0
13334.1625,235.54105193296473,-9109.6822538675,0,0
13344.175,235.4369718533007,-9103.900322732707,0,0
13354.1875,235.57440108078643,-9097.233803561658,0,0
13364.2,235.29337925010566,-9091.164945680503,0,0
13374.2125,234.5354566225007,-9084.958321296544,0,0
13384.225,233.99402291416982,-9078.612765634978,0,0
13394.2375,232.99968668026656,-9072.781376454433,0,0
13404.25,231.9534916186262,-9066.406905008938,0,0
13414.2625,230.94387348938642,-9060.346527254527,0,0
13424.275,229.69854068099073,-9053.77544685482,0,0
13434.2875,228.6515088586148,-9047.882022028947,0,0
13444.3,227.20744830124085,-9040.926808318258,0,0
13454.3125,225.46544323730586,-9033.871981808985,0,0
13464.325,224.21313101189787,-9026.580730876838,0,0
13474.3375,223.36916249977213,-9018.872444375607,0,0
13484.35,222.74335382359857,-9011.982397798214,0,0
13494.3625,221.8959462291831,-9005.253646047982,0,0
13504.375,221.1133311834655,-8997.362867686632,0,0
13514.3875,220.970842601071,-8990.147346325286,0,0
13524.4,219.43268466739968,-8983.372245164795,0,0
13534.4125,219.24721060100276,-8974.930447284622,0,0
13544.425,219.24071315431908,-8968.920250443962,0,0
13554.4375,218.1441601057767,-8960.474509501657,0,0
13564.45,218.49938662733814,-8954.139321576453,0,0
13574.4625,218.50376439053042,-8945.883778575144,0,0
13584.475,218.3538295313185,-8939.203979853617,0,0
13594.4875,219.08885937049166,-8931.421110003224,0,0
13604.5,218.3872262205665,-8924.568498171024,0,0
13614.5125,218.9520076126415,-8917.808474138503,0,0
13624.525,219.71517366613799,-8909.892621302755,0,0
13634.5375,220.0337786788906,-8903.002509576732,0,0
13644.55,220.32950597385843,-8897.023811270072,0,0
13654.5625,221.23519018899637,-8890.172746587987,0,0
13664.575,222.40227861192398,-8884.281101310718,0,0
13674.5875,222.99276858231207,-8877.300673735348,0,0
13684.6,223.55722488491574,-8871.424551090131,0,0
13694.6125,224.19999715244597,-8865.559705240403,0,0
13704.625,224.47050009049423,-8859.853975938757,0,0
13714.6375,224.89105621511956,-8854.384382900169,0,0
13724.65,224.90508310817023,-8849.570188925556,0,0
13734.6625,224.21006748607246,-8844.27047637191,0,0
13744.675,223.61726048497906,-8839.155654666905,0,0
