Frequency (Hz),Impedance (ohms),Phase (Radians),Temperature (C),Humidity (%)
10000.0,279.9950433422139,-11959.390372824884,0,0
10010.0125,279.53766765282575,-11946.5130707952,0,0
10020.025,279.4453553676339,-11934.16144224812,0,0
10030.0375,279.12343381152436,-11921.909439116922,0,0
10040.05,279.52839686626527,-11909.504790443512,0,0
10050.0625,280.1398252498955,-11897.20477414124,0,0
10060.075,280.15648804573726,-11884.713133616051,0,0
10070.0875,280.7060044504003,-11871.943529549888,0,0
10080.1,280.98601621916987,-11859.428400350394,0,0
10090.1125,281.9835586473226,-11847.781683760033,0,0
10100.125,283.72661347851897,-11835.53446930848,0,0
10110.1375,284.97558156111876,-11823.041206985186,0,0
10120.15,286.8298370345706,-11812.070744096907,0,0
10130.1625,288.61534641858975,-11801.24394299083,0,0
10140.175,289.8600796694829,-11790.96677126621,0,0
10150.1875,291.4050753233023,-11781.48965071036,0,0
10160.2,292.7709804993528,-11771.996521553954,0,0
10170.2125,293.3342611633918,-11763.576300185194,0,0
10180.225,292.6556692857554,-11755.291941423862,0,0
10190.2375,291.47106625681147,-11746.691888936073,0,0
10200.25,289.7197865599473,-11737.096868542185,0,0
10210.2625,287.3528832453811,-11727.695422381103,0,0
10220.275,284.9417787212391,-11717.10889954118,0,0
10230.2875,282.5603971406956,-11706.227372994164,0,0
10240.3,280.9641052048943,-11694.585109810527,0,0
10250.3125,279.4593624011301,-11683.413602712677,0,0
10260.325,277.61767492474274,-11671.598608432818,0,0
10270.3375,276.3416663959289,-11659.969507303495,0,0
10280.35,275.4852124000435,-11648.22101502678,0,0
10290.3625,274.262934363256,-11636.784627020183,0,0
10300.375,273.73453483358634,-11625.05120432638,0,0
10310.3875,272.95149800948036,-11613.041347421013,0,0
10320.4,271.89149971003246,-11601.563720398708,0,0
10330.4125,271.2849258840841,-11590.168392490286,0,0
10340.425,270.756726422963,-11578.536984407445,0,0
10350.4375,270.4133491437684,-11566.723321417287,0,0
10360.45,270.0937059386976,-11555.693291836178,0,0
10370.4625,269.2356550449269,-11544.05380270201,0,0
10380.475,268.9185951453815,-11532.736575387034,0,0
10390.4875,268.1574993849096,-11520.928035732659,0,0
10400.5,268.15505432752514,-11510.039125650203,0,0
10410.5125,267.5735261817885,-11498.89655033422,0,0
10420.525,267.50415615817997,-11487.267075890773,0,0
10430.5375,266.71444101868826,-11476.404676400496,0,0
10440.55,266.13609929038034,-11465.171601690106,0,0
10450.5625,266.30308501560995,-11454.207916868105,0,0
10460.575,265.5532155480457,-11443.284499695541,0,0
10470.5875,265.6693486212044,-11431.560280320062,0,0
10480.6,265.0339480661849,-11420.860297338651,0,0
10490.6125,264.8329766429541,-11409.731060129365,0,0
10500.625,264.6518134786455,-11398.380239544977,0,0
10510.6375,264.1804139933815,-11387.616037436524,0,0
10520.65,264.4878941190983,-11376.794712833535,0,0
10530.6625,263.79845266215045,-11365.598855882166,0,0
10540.675,263.51491313861806,-11354.801850433258,0,0
10550.6875,263.5700197392015,-11343.65808110368,0,0
10560.7,263.2983479949963,-11333.226152699817,0,0
10570.7125,262.8431391813707,-11321.913172544413,0,0
10580.725,262.5262135833212,-11310.848945155143,0,0
10590.7375,262.02579650907916,-11300.529751993612,0,0
10600.75,262.0848133715208,-11289.533188257823,0,0
10610.7625,261.6555379711162,-11278.779068756738,0,0
10620.775,261.55553378160306,-11268.301211593636,0,0
10630.7875,261.28799265239536,-11257.781250069018,0,0
10640.8,261.0618041206464,-11246.874878043049,0,0
10650.8125,260.9481008958106,-11235.914776748823,0,0
10660.825,260.8377912049477,-11225.127024187088,0,0
10670.8375,260.5004992246189,-11214.957626358775,0,0
10680.85,260.2223197469057,-11204.037610781152,0,0
10690.8625,260.19385563128606,-11193.430955103137,0,0
10700.875,259.6711182586115,-11182.996710154675,0,0
10710.8875,259.49206812417765,-11172.029765655494,0,0
10720.9,259.2186411515242,-11161.634453360473,0,0
10730.9125,259.1725646970772,-11151.032970161606,0,0
10740.925,259.0179451483376,-11140.554976641492,0,0
10750.9375,259.0432112604284,-11129.7768941673,0,0
10760.95,258.30401559470585,-11119.57810861041,0,0
10770.9625,258.610526734184,-11109.222295270043,0,0
10780.975,258.0034354722658,-11098.818074274443,0,0
10790.9875,258.1885675687758,-11088.031998779805,0,0
10801.0,257.8865040867418,-11077.496785979261,0,0
10811.0125,257.4827801182892,-11067.856523400238,0,0
10821.025,257.90255952283877,-11057.01601080974,0,0
10831.0375,257.5233752659887,-11046.219805220306,0,0
10841.05,257.507410369471,-11036.403020032694,0,0
10851.0625,257.5447696160057,-11026.179493368267,0,0
10861.075,257.3504014293385,-11016.06761518076,0,0
10871.0875,257.3302705635154,-11005.616999629101,0,0
10881.1,256.84729027956377,-10995.439108940558,0,0
10891.1125,256.6488440647316,-10985.320316535328,0,0
10901.125,255.9401639118614,-10975.408682924477,0,0
10911.1375,256.18415400759807,-10965.265745122368,0,0
10921.15,255.88717596543148,-10955.24622558238,0,0
10931.1625,255.97838763834824,-10944.445188897556,0,0
10941.175,255.69871463878567,-10934.644006987794,0,0
10951.1875,255.19830782934707,-10924.088444470513,0,0
10961.2,255.62367533696198,-10914.459465717035,0,0
10971.2125,255.36555554874477,-10903.79721964626,0,0
10981.225,255.22958674893286,-10893.932804969905,0,0
10991.2375,255.02645408338262,-10883.786583241046,0,0
11001.25,255.26022926992428,-10873.778825135789,0,0
11011.2625,255.2018294888737,-10864.039974002118,0,0
11021.275,255.40135581393127,-10854.35657320027,0,0
11031.2875,254.79228129928921,-10843.752231560367,0,0
11041.3,255.12419382573702,-10833.852854628922,0,0
11051.3125,254.72558373540522,-10824.32980999577,0,0
11061.325,254.7837832428365,-10814.460882943671,0,0
11071.3375,254.64680071559764,-10804.651817953534,0,0
11081.35,254.55165647725264,-10794.746506838563,0,0
11091.3625,254.6908151825298,-10785.101760687365,0,0
11101.375,254.24699046106375,-10775.109343786626,0,0
11111.3875,254.33547754657346,-10765.08076007719,0,0
11121.4,254.2844491610086,-10755.76045206508,0,0
11131.4125,253.8673228381897,-10745.861313741534,0,0
11141.425,253.73215445225745,-10736.020876582388,0,0
11151.4375,254.03443352797922,-10726.631937862769,0,0
11161.45,253.7575106933079,-10716.61243024982,0,0
11171.4625,253.67023679182046,-10707.136339226445,0,0
11181.475,252.77945223897578,-10697.192017064775,0,0
11191.4875,252.97857530823612,-10686.931760715674,0,0
11201.5,253.2578602403914,-10677.831648484434,0,0
11211.5125,253.0820992711068,-10668.308263967348,0,0
11221.525,252.84816127262818,-10658.337509458208,0,0
11231.5375,253.05147968174316,-10648.631638989453,0,0
11241.55,252.23037327776228,-10639.366971133033,0,0
11251.5625,252.44777225470978,-10629.506258166653,0,0
11261.575,252.1396177751765,-10619.48393922939,0,0
11271.5875,252.11270937917607,-10610.074055348552,0,0
11281.6,251.57458721211077,-10600.17454953535,0,0
11291.6125,252.09731897290789,-10591.060609583554,0,0
11301.625,251.6651953884589,-10581.086856435884,0,0
11311.6375,252.14928096424768,-10571.558092162679,0,0
11321.65,251.75319060349295,-10562.022314221591,0,0
11331.6625,251.87485867592,-10552.524595301855,0,0
11341.675,251.94157544839024,-10543.150736174459,0,0
11351.6875,251.49752403923054,-10533.443402586434,0,0
11361.7,251.54074590880188,-10524.19494158267,0,0
11371.7125,252.1457560552283,-10514.35563556481,0,0
11381.725,251.8028721330147,-10504.911258145668,0,0
11391.7375,251.49038937907662,-10495.550527722795,0,0
11401.75,252.4009716136729,-10484.610673536426,0,0
11411.7625,251.60346527125586,-10475.942605857885,0,0
11421.775,252.17468731831423,-10466.426278665705,0,0
11431.7875,252.3907056220072,-10457.19709339873,0,0
11441.8,251.81003158475968,-10448.191423219807,0,0
11451.8125,252.2027826069579,-10438.443109625621,0,0
11461.825,252.42313015992215,-10429.085572833474,0,0
11471.8375,252.42001223490712,-10419.448444734533,0,0
11481.85,252.68385197099838,-10410.170915480847,0,0
11491.8625,252.79460362427002,-10400.50575539116,0,0
11501.875,252.93012510323052,-10391.585315679577,0,0
11511.8875,253.2363246319051,-10382.168318173524,0,0
11521.9,253.30186878301157,-10372.431997516116,0,0
11531.9125,253.82390231776196,-10363.697645502163,0,0
11541.925,254.1059115362125,-10353.978578589287,0,0
11551.9375,254.07524323300692,-10344.91139497132,0,0
11561.95,254.7726313418758,-10335.761976941154,0,0
11571.9625,255.19336928417127,-10326.564327197237,0,0
11581.975,255.37303922130056,-10317.347618846743,0,0
11591.9875,256.4007552535695,-10308.426862802913,0,0
11602.0,256.7530630806059,-10299.473944562458,0,0
11612.0125,257.39464350229593,-10290.263554304609,0,0
11622.025,257.66008747754495,-10281.328399331198,0,0
11632.0375,258.49504604453557,-10271.946908225242,0,0
11642.05,258.98515476524847,-10263.853258688876,0,0
11652.0625,259.9048656167851,-10255.048330123007,0,0
11662.075,260.51852741698895,-10246.659710144673,0,0
11672.0875,260.4618915856085,-10238.266725943982,0,0
11682.1,261.0175517395975,-10229.937569932215,0,0
11692.1125,261.97189092092265,-10221.663992616614,0,0
11702.125,261.55874777324675,-10213.690344743702,0,0
11712.1375,261.6307622621368,-10205.01504359765,0,0
11722.15,261.51990683885225,-10196.828087003303,0,0
11732.1625,261.82431223541795,-10188.692299435123,0,0
11742.175,260.85196687267893,-10180.25088720278,0,0
11752.1875,261.3839496080006,-10171.378668521946,0,0
11762.2,260.59954097014054,-10163.147145198169,0,0
11772.2125,260.6571944215298,-10153.619685420663,0,0
11782.225,260.4366596846731,-10145.042363999148,0,0
11792.2375,260.52631029515027,-10135.986259027612,0,0
11802.25,260.56721968070866,-10127.346010394223,0,0
11812.2625,260.8478747104513,-10117.844769945064,0,0
11822.275,260.7155496305535,-10109.729650822195,0,0
11832.2875,261.3696106498969,-10100.450565579316,0,0
11842.3,261.9934497373207,-10091.555693395587,0,0
11852.3125,262.62848495322737,-10082.670496910949,0,0
11862.325,262.89275319589024,-10074.524590906794,0,0
11872.3375,263.5706916992902,-10066.332404310608,0,0
11882.35,264.33318363425263,-10057.887992636139,0,0
11892.3625,264.8785218390504,-10049.433692136708,0,0
11902.375,264.8063198740913,-10041.704538377728,0,0
11912.3875,264.83320687180486,-10033.587205895044,0,0
11922.4,264.83377954947275,-10026.101980560861,0,0
11932.4125,264.38173605502124,-10017.64657682827,0,0
11942.425,264.03395021583526,-10009.388279291026,0,0
11952.4375,263.2303767254255,-10000.979856691536,0,0
11962.45,262.8264283014978,-9992.161821527507,0,0
11972.4625,262.6165225002766,-9983.115282236464,0,0
11982.475,262.35985694010077,-9974.084165940232,0,0
11992.4875,262.46980832559376,-9964.749244837105,0,0
12002.5,262.54754923831126,-9955.770465612553,0,0
12012.5125,262.9233302288386,-9946.104830833387,0,0
12022.525,263.60290826004206,-9936.794696614006,0,0
12032.5375,264.2849261094449,-9927.58767214153,0,0
12042.55,264.97574640008577,-9918.485857430189,0,0
12052.5625,265.89753717499235,-9909.156305479532,0,0
12062.575,267.1767457453692,-9900.3128074502,0,0
12072.5875,268.14866360809447,-9891.154735680493,0,0
12082.6,269.70984210411376,-9881.839219021469,0,0
12092.6125,271.1859082122261,-9872.96148980313,0,0
12102.625,272.82421202235736,-9864.492462276614,0,0
12112.6375,274.41032459680434,-9855.653387587248,0,0
12122.65,275.8371325319787,-9846.79617383631,0,0
12132.6625,277.64255534453423,-9838.572431707116,0,0
12142.675,279.78790745568233,-9830.00210785634,0,0
12152.6875,281.80434023435885,-9821.45176287456,0,0
12162.7,284.36961219600545,-9813.12773160071,0,0
12172.7125,286.76870661315417,-9805.652337562042,0,0
12182.725,289.32550861182455,-9797.792513246237,0,0
12192.7375,292.20637292779327,-9789.642286826453,0,0
12202.75,295.0427427268861,-9782.86500690711,0,0
12212.7625,297.81535259505716,-9775.674887726418,0,0
12222.775,300.97006587153743,-9769.05647270065,0,0
12232.7875,303.57785409675586,-9762.545377225226,0,0
12242.8,307.11160043143656,-9756.549975955217,0,0
12252.8125,309.88747266413435,-9750.824139447712,0,0
12262.825,312.58049888802407,-9745.732403385666,0,0
12272.8375,315.87102054123835,-9740.685274969072,0,0
12282.85,317.88932250063795,-9736.26326697551,0,0
12292.8625,320.38659668176876,-9732.776273208881,0,0
12302.875,322.44558961595254,-9728.783169543563,0,0
12312.8875,323.74659664384274,-9725.907173646543,0,0
12322.9,324.08456799189213,-9723.351690574953,0,0
12332.9125,324.64108697859785,-9720.819508316748,0,0
12342.925,324.3901841356654,-9717.759835570147,0,0
12352.9375,323.173092232957,-9715.366414742131,0,0
12362.95,321.19615594675645,-9712.004305522729,0,0
12372.9625,318.3982306334344,-9709.244098773526,0,0
12382.975,315.02361035212,-9705.777137862853,0,0
12392.9875,311.56719769329084,-9701.3103955682,0,0
12403.0,307.5715132543231,-9696.514430475167,0,0
12413.0125,303.78694718672733,-9690.767518719547,0,0
12423.025,299.8024389707772,-9684.797690132107,0,0
12433.0375,296.0219424895567,-9677.834510598323,0,0
12443.05,292.0358651970112,-9670.430229839078,0,0
12453.0625,288.7986290014883,-9662.7352231658,0,0
12463.075,286.0345033435111,-9654.56501798359,0,0
12473.0875,283.5099011931863,-9646.513291029538,0,0
12483.1,281.1230205490512,-9638.70597615974,0,0
12493.1125,279.5807969254151,-9629.97267554319,0,0
12503.125,278.0816283798444,-9621.815639122377,0,0
12513.1375,276.12213526291663,-9613.605642535895,0,0
12523.15,274.8268436927974,-9605.798329344214,0,0
12533.1625,273.7712093173405,-9598.076071047086,0,0
12543.175,272.32069400781023,-9590.014511579819,0,0
12553.1875,270.59432314990147,-9582.137759362398,0,0
12563.2,269.69826980644325,-9574.344274135496,0,0
12573.2125,267.76914258610685,-9566.15724159184,0,0
12583.225,266.6450044461253,-9558.327683450896,0,0
12593.2375,265.80187011091635,-9550.22488607295,0,0
12603.25,264.437324552668,-9541.699849240831,0,0
12613.2625,263.422551754641,-9533.123111761444,0,0
12623.275,262.6385378000227,-9524.817176050085,0,0
12633.2875,261.49460771148654,-9516.257054375998,0,0
12643.3,260.75374519927783,-9507.619672298264,0,0
12653.3125,260.44509268430903,-9498.699190591042,0,0
12663.325,260.4101045885486,-9489.857216049082,0,0
12673.3375,260.2339386900455,-9481.747976915374,0,0
12683.35,260.51011213384515,-9472.632273055699,0,0
12693.3625,261.1706647421694,-9464.372317656735,0,0
12703.375,262.16128929497756,-9455.941263065428,0,0
12713.3875,262.94432714180726,-9447.939594077863,0,0
12723.4,264.13867854483465,-9440.090162541359,0,0
12733.4125,265.7114481526221,-9433.101976815438,0,0
12743.425,266.691129004619,-9425.435357643357,0,0
12753.4375,268.152062486185,-9418.898391312112,0,0
12763.45,269.35753416203494,-9412.358594422116,0,0
12773.4625,270.33222382024576,-9406.112868459808,0,0
12783.475,271.0765747688461,-9400.265638568586,0,0
12793.4875,271.7472755904083,-9394.999526716232,0,0
12803.5,272.32757642219815,-9389.184339609186,0,0
12813.5125,271.97100384912784,-9383.822904241506,0,0
12823.525,271.6837366978543,-9378.288191067926,0,0
12833.5375,271.42662691946157,-9372.647695902362,0,0
12843.55,270.4040505389368,-9367.032553146986,0,0
12853.5625,269.61343789444095,-9361.266201315442,0,0
12863.575,268.2322748720016,-9355.68974702435,0,0
12873.5875,267.0086700252356,-9349.415264288335,0,0
12883.6,265.66217324614956,-9343.300112822064,0,0
12893.6125,264.029826076676,-9337.037896505772,0,0
12903.625,263.135142673558,-9330.442498879303,0,0
12913.6375,261.2281482229171,-9323.7925868919,0,0
12923.65,259.9287132268509,-9316.701293336284,0,0
12933.6625,258.40409443700196,-9310.156494541063,0,0
12943.675,257.1077980987635,-9303.210449495096,0,0
12953.6875,255.67246444984386,-9296.193354333675,0,0
12963.7,254.59159683506388,-9288.772970610597,0,0
12973.7125,253.29699579572284,-9281.607858580574,0,0
12983.725,252.32133711534712,-9274.02239986465,0,0
12993.7375,251.2368662140338,-9266.939602344906,0,0
13003.75,250.15295951262797,-9259.649073746623,0,0
13013.7625,249.06508723049305,-9252.080335335122,0,0
13023.775,248.44869978268,-9244.846328108482,0,0
13033.7875,247.56322601985553,-9237.239170600029,0,0
13043.8,246.60636522608118,-9229.8943808588,0,0
13053.8125,246.20327152942642,-9221.960164897191,0,0
13063.825,245.61497338108586,-9214.716592975876,0,0
13073.8375,245.07117853778618,-9207.104921738834,0,0
13083.85,244.53780533828854,-9200.043799771956,0,0
13093.8625,244.29088798127293,-9192.147684139616,0,0
13103.875,244.37538673137567,-9184.922073150596,0,0
13113.8875,243.65869892088676,-9177.380869684328,0,0
13123.9,243.35710473329482,-9169.77817270783,0,0
13133.9125,243.44942408028007,-9162.861889577467,0,0
13143.925,242.91627238709438,-9155.397728829616,0,0
13153.9375,243.5372311896634,-9148.641313709773,0,0
13163.95,243.62786284859865,-9140.96939245027,0,0
13173.9625,243.76824772344878,-9134.708877184343,0,0
13183.975,244.47907756942132,-9126.883260822884,0,0
13193.9875,244.26644962833086,-9120.102987971793,0,0
13204.0,244.6334075818024,-9113.75825372637,0,0
13214.0125,245.14467067237564,-9106.82213034903,0,0
13224.025,245.01954451772377,-9100.193010532832,0,0
13234.0375,244.86635437933725,-9094.287051329164,0,0
13244.05,245.57400596051482,-9088.134966428714,0,0
13254.0625,246.06310321715318,-9081.798904411513,0,0
13264.075,246.3397030490808,-9075.855072070595,0,0
13274.0875,245.85613277075694,-9070.112518125736,0,0
13284.1,245.6610306547767,-9064.22679963602,0,0
13294.1125,244.9547323297555,-9058.319047678873,0,0
13304.125,244.0373215132054,-9052.83114881607,0,0
13314.1375,243.49306904739217,-9047.027289850388,0,0
13324.15,242.14000116155452,-9041.0177415023,0,0
13334.1625,241.07035471821112,-9035.149802741591,0,0
13344.175,239.11034714139618,-9029.368514972952,0,0
13354.1875,238.13029131181034,-9022.662059239137,0,0
13364.2,236.29587492348318,-9016.353455477436,0,0
13374.2125,235.55309968951642,-9009.404313399806,0,0
13384.225,234.10994045576572,-9002.266971572744,0,0
13394.2375,232.65532546665045,-8995.646424427729,0,0
13404.25,231.19045502537242,-8988.768412877907,0,0
13414.2625,230.68324914325606,-8980.799654950328,0,0
13424.275,229.53450844111742,-8974.441307454033,0,0
13434.2875,228.75062051330656,-8966.286819660963,0,0
13444.3,227.68062233978605,-8959.482411216228,0,0
13454.3125,226.36951568526177,-8952.31890971791,0,0
13464.325,226.7127990696467,-8944.553221891367,0,0
13474.3375,225.68388161474425,-8937.339480604363,0,0
13484.35,226.01255657804535,-8930.535950027417,0,0
13494.3625,225.5278086036937,-8922.308013519236,0,0
13504.375,224.67019944804017,-8915.644083722505,0,0
13514.3875,225.19314794082368,-8908.268945949381,0,0
13524.4,225.5082524057509,-8900.663791691615,0,0
13534.4125,224.91104404177295,-8893.664229393726,0,0
13544.425,225.00488726564626,-8886.703873704466,0,0
13554.4375,225.74033070464085,-8879.692311226743,0,0
13564.45,226.45525648787583,-8872.833562258114,0,0
13574.4625,226.89443812885946,-8865.808687114319,0,0
13584.475,227.13856591260887,-8858.959162990173,0,0
13594.4875,227.94396775767743,-8852.513192728782,0,0
13604.5,228.4628275626594,-8846.360740450622,0,0
13614.5125,229.0875068180856,-8840.45630971221,0,0
13624.525,229.57491221151597,-8835.002765568459,0,0
13634.5375,229.9211751835694,-8829.56574186444,0,0
13644.55,229.5737689943012,-8823.835233694574,0,0
13654.5625,229.19967315694754,-8818.93942309231,0,0
13664.575,228.75490381753804,-8813.470410917804,0,0
13674.5875,227.32103585468695,-8807.794834987319,0,0
13684.6,226.74618066734902,-8802.589187033553,0,0
13694.6125,225.58785938119058,-8796.299507336978,0,0
13704.625,224.37405027382167,-8790.65272654663,0,0
13714.6375,222.74883329184854,-8784.066528891246,0,0
13724.65,221.85144422210436,-8777.704026068484,0,0
13734.6625,220.54033910576499,-8771.24710847671,0,0
13744.675,219.790286997651,-8764.425152151682,0,0
13754.6875,219.06721230662475,-8757.500003390185,0,0
