Frequency (Hz),Impedance (ohms),Phase (Radians),Temperature (C),Humidity (%)
10000.0,4216.816799415692,-6524.512391786738,0,0
10010.0125,4211.426532615864,-6521.213433937419,0,0
10020.025,4206.1063935912625,-6518.585156557837,0,0
10030.0375,4200.968687719866,-6516.230248544808,0,0
10040.05,4195.234332182894,-6512.928891785388,0,0
10050.0625,4189.940240115416,-6509.835581113815,0,0
10060.075,4184.531378804967,-6507.133154610046,0,0
10070.0875,4178.871363626892,-6504.100275466765,0,0
10080.1,4173.490198318388,-6501.105426781815,0,0
10090.1125,4168.718778553863,-6498.341906061876,0,0
10100.125,4163.442606098825,-6495.49014621385,0,0
10110.1375,4157.240264864096,-6492.671387305399,0,0
10120.15,4152.552284619987,-6489.435520245339,0,0
10130.1625,4147.057666249754,-6486.784683904438,0,0
10140.175,4141.444241175203,-6483.467852647256,0,0
10150.1875,4136.499741044658,-6480.671956110828,0,0
10160.2,4131.36833848005,-6477.725728373969,0,0
10170.2125,4126.04016677152,-6474.343851952969,0,0
10180.225,4120.843525682094,-6471.961309993616,0,0
10190.2375,4115.463613972944,-6469.086561342665,0,0
10200.25,4110.47892203452,-6466.323570337731,0,0
10210.2625,4105.010873012201,-6463.307093247948,0,0
10220.275,4100.173941398316,-6459.816919069878,0,0
10230.2875,4094.7295648409086,-6457.1591353518315,0,0
10240.3,4089.7325639439514,-6454.484692587248,0,0
10250.3125,4084.1236864935713,-6451.620652878503,0,0
10260.325,4079.1973593479474,-6448.568831652618,0,0
10270.3375,4074.306305209766,-6445.375239703883,0,0
10280.35,4068.5921589034824,-6442.750911891648,0,0
10290.3625,4063.894426723733,-6439.880787923469,0,0
10300.375,4058.5002843367793,-6436.733738182209,0,0
10310.3875,4053.624037783393,-6434.4956063448735,0,0
10320.4,4048.6091026514273,-6431.109656006913,0,0
10330.4125,4043.1566620352505,-6428.251652665681,0,0
10340.425,4038.0414891236696,-6425.643100084666,0,0
10350.4375,4033.3520588319757,-6422.186846204194,0,0
10360.45,4028.0894040617945,-6419.5764235385905,0,0
10370.4625,4022.7962891008488,-6416.582864594399,0,0
10380.475,4017.529914962072,-6413.421057695637,0,0
10390.4875,4012.31649071314,-6410.763195992748,0,0
10400.5,4007.7792054706365,-6407.6337067361865,0,0
10410.5125,4002.4003528115595,-6404.505054754387,0,0
10420.525,3997.4523939937444,-6401.463383137034,0,0
10430.5375,3992.322957858937,-6398.940961502995,0,0
10440.55,3987.425672973726,-6396.250306396177,0,0
10450.5625,3982.523206302731,-6392.9885554514685,0,0
10460.575,3977.4623363849064,-6389.8403692988195,0,0
10470.5875,3972.4809637384965,-6387.336132631316,0,0
10480.6,3967.420755093838,-6384.604719235512,0,0
10490.6125,3962.674892250704,-6381.878249288938,0,0
10500.625,3957.5473245575063,-6378.241299595285,0,0
10510.6375,3952.6743024020925,-6375.609767827853,0,0
10520.65,3947.8439294084815,-6372.786318668816,0,0
10530.6625,3942.9010918036815,-6369.362298622514,0,0
10540.675,3937.7577315778713,-6366.9758217292265,0,0
10550.6875,3933.0297620883416,-6364.301781114462,0,0
10560.7,3928.1731678156893,-6361.082045784786,0,0
10570.7125,3923.5369286057717,-6358.361692356697,0,0
10580.725,3918.020506125623,-6355.293244245792,0,0
10590.7375,3914.386064604982,-6352.080596933668,0,0
10600.75,3908.642907847894,-6349.208982139027,0,0
10610.7625,3904.046325003906,-6346.2815224203605,0,0
10620.775,3899.2449550176325,-6342.771135279382,0,0
10630.7875,3894.4205862433137,-6340.343454068918,0,0
10640.8,3889.47657625277,-6337.499017697351,0,0
10650.8125,3885.340334686588,-6334.816445003498,0,0
10660.825,3880.0932417607496,-6331.551215790725,0,0
10670.8375,3875.0111790024725,-6328.64630974015,0,0
10680.85,3870.2930419574172,-6325.914880297981,0,0
10690.8625,3865.2772763051025,-6323.308787764583,0,0
10700.875,3860.61931742037,-6320.356140952188,0,0
10710.8875,3855.887605634304,-6317.2118356476885,0,0
10720.9,3851.021516059266,-6314.149098305904,0,0
10730.9125,3846.498402822322,-6311.217368653125,0,0
10740.925,3841.9451788042093,-6308.694875617164,0,0
10750.9375,3836.772052966704,-6305.988015923492,0,0
10760.95,3831.9474017923167,-6302.965633615485,0,0
10770.9625,3827.2745002468846,-6300.253509803399,0,0
10780.975,3822.484285808806,-6296.815917803886,0,0
10790.9875,3817.995904116208,-6294.0003545296,0,0
10801.0,3813.1532683643854,-6291.302046250991,0,0
10811.0125,3808.676325935559,-6288.269614502083,0,0
10821.025,3803.7953354538768,-6285.633925251502,0,0
10831.0375,3799.2655182215412,-6282.532962390488,0,0
10841.05,3794.3095405928375,-6279.541503265059,0,0
10851.0625,3789.618913562696,-6276.655161975846,0,0
10861.075,3785.286892193043,-6274.06251987964,0,0
10871.0875,3780.650374056007,-6271.066507811343,0,0
10881.1,3775.7477662287924,-6267.998715062674,0,0
10891.1125,3771.324835715509,-6265.261690771313,0,0
10901.125,3766.2521741877135,-6262.072464287313,0,0
10911.1375,3761.7205579834717,-6259.3835896085875,0,0
10921.15,3757.66434275522,-6256.283618669225,0,0
10931.1625,3753.0319872296554,-6253.41262421465,0,0
10941.175,3748.4021855035485,-6250.573818674458,0,0
10951.1875,3743.6623138251543,-6247.81744882681,0,0
10961.2,3738.962549398982,-6244.569738721552,0,0
10971.2125,3734.6246467846504,-6241.739727540439,0,0
10981.225,3729.8570207220478,-6238.610409520923,0,0
10991.2375,3725.2427403944616,-6235.759375487092,0,0
11001.25,3720.6988019997084,-6233.026474929056,0,0
11011.2625,3716.241305022024,-6230.099980644388,0,0
11021.275,3711.980996798115,-6227.127107683341,0,0
11031.2875,3707.391290137229,-6224.207657360497,0,0
11041.3,3702.759599484366,-6221.378023334402,0,0
11051.3125,3698.3801007751567,-6218.7206223756575,0,0
11061.325,3694.0472434210715,-6215.538982537635,0,0
11071.3375,3689.722484617829,-6212.501633436943,0,0
11081.35,3685.040120977489,-6209.957478290924,0,0
11091.3625,3680.730082135414,-6206.760378180389,0,0
11101.375,3676.5846982107,-6204.268433024502,0,0
11111.3875,3672.135067791089,-6201.390443652015,0,0
11121.4,3667.5474586590385,-6198.3443641114345,0,0
11131.4125,3663.1242827831556,-6196.0385898276145,0,0
11141.425,3658.560597628117,-6193.138067808848,0,0
11151.4375,3654.469388710178,-6190.02170374649,0,0
11161.45,3649.764689222842,-6187.000107259107,0,0
11171.4625,3645.5689284189216,-6184.719466551793,0,0
11181.475,3640.704336403271,-6181.638377678039,0,0
11191.4875,3636.4134717218885,-6178.765862998832,0,0
11201.5,3632.463491020901,-6175.885224164763,0,0
11211.5125,3627.6018589393766,-6172.921099629596,0,0
11221.525,3623.5320430423944,-6170.245391018831,0,0
11231.5375,3619.022031539377,-6167.796727610541,0,0
11241.55,3614.5925596126817,-6164.814915498403,0,0
11251.5625,3610.3394174010305,-6161.591823501937,0,0
11261.575,3605.945569877227,-6158.787645111864,0,0
11271.5875,3601.6448125005254,-6155.929591544242,0,0
11281.6,3597.3869430907157,-6153.127365219264,0,0
11291.6125,3593.235031405846,-6150.66628547876,0,0
11301.625,3588.643551258463,-6147.4028309079895,0,0
11311.6375,3584.377399685339,-6144.567365893625,0,0
11321.65,3580.0986173100296,-6141.548575543735,0,0
11331.6625,3575.907600915745,-6138.890360312643,0,0
11341.675,3571.5793263150226,-6135.914132890502,0,0
11351.6875,3567.4510365300093,-6133.01730199107,0,0
11361.7,3562.976054131602,-6130.412922192017,0,0
11371.7125,3558.892012250402,-6127.535098640861,0,0
11381.725,3554.689600703182,-6124.446674059262,0,0
11391.7375,3550.370879670513,-6122.219432175347,0,0
11401.75,3546.1405384823192,-6119.162393867765,0,0
11411.7625,3542.1376138837704,-6116.591457259141,0,0
11421.775,3537.7581345847143,-6113.48215565439,0,0
11431.7875,3533.6525999447617,-6110.451361485878,0,0
11441.8,3529.374700050365,-6107.484382645662,0,0
11451.8125,3525.4145239250197,-6104.946637788684,0,0
11461.825,3521.0579966608097,-6101.993451342748,0,0
11471.8375,3516.931334332541,-6099.411457505001,0,0
11481.85,3512.525201883397,-6096.520420479571,0,0
11491.8625,3508.594722997184,-6093.442853005695,0,0
11501.875,3504.435357848148,-6090.661706748167,0,0
11511.8875,3500.0365365778043,-6087.8319340121825,0,0
11521.9,3496.028152499444,-6085.152144413102,0,0
11531.9125,3492.1049711745145,-6082.199116334547,0,0
11541.925,3488.1448889784124,-6079.397325861476,0,0
11551.9375,3483.8271610932693,-6077.067467937508,0,0
11561.95,3479.32583209662,-6074.142247765545,0,0
11571.9625,3475.6087378773736,-6071.051822788254,0,0
11581.975,3471.4319556753717,-6068.380445990089,0,0
11591.9875,3467.2459025861217,-6065.505239663705,0,0
11602.0,3463.2782255023485,-6062.680367304379,0,0
11612.0125,3459.1295772332805,-6059.938177486216,0,0
11622.025,3455.023962440883,-6056.867087418615,0,0
11632.0375,3451.0138408185358,-6054.423454885527,0,0
11642.05,3446.9380730521343,-6051.359452145064,0,0
11652.0625,3442.7283643352175,-6048.826386281261,0,0
11662.075,3439.0874811979174,-6045.796489284745,0,0
11672.0875,3434.828192361236,-6043.1632867423,0,0
11682.1,3430.857661649302,-6040.1159772912,0,0
11692.1125,3426.6042926245464,-6037.509275362673,0,0
11702.125,3422.9567113354638,-6034.768255075578,0,0
11712.1375,3419.1899111003268,-6031.785759362896,0,0
11722.15,3415.116596116514,-6028.891288775045,0,0
11732.1625,3410.8944784420037,-6026.187550158336,0,0
11742.175,3406.7814994407304,-6023.499342137142,0,0
11752.1875,3402.881554540853,-6020.588829785038,0,0
11762.2,3398.8512440316504,-6017.916209579083,0,0
11772.2125,3394.9981054767773,-6015.284047756264,0,0
11782.225,3391.0855226108165,-6012.402917946155,0,0
11792.2375,3386.9186295788486,-6009.585904311902,0,0
11802.25,3382.8677319338094,-6006.761468681655,0,0
11812.2625,3378.9663195064077,-6003.920156133956,0,0
11822.275,3375.2420894536726,-6001.0327871732925,0,0
11832.2875,3371.2339959343144,-5998.367458776566,0,0
11842.3,3367.3226451324545,-5995.705705650536,0,0
11852.3125,3363.1780592302425,-5993.037614349601,0,0
11862.325,3359.3733453801087,-5989.786919848747,0,0
11872.3375,3355.497576133244,-5987.349785846995,0,0
11882.35,3351.6851345921013,-5984.456775429169,0,0
11892.3625,3347.814611413608,-5981.9606376661595,0,0
11902.375,3343.6156441584017,-5979.155837499293,0,0
11912.3875,3339.79926641282,-5975.810303113012,0,0
11922.4,3335.704824815716,-5973.372263996848,0,0
11932.4125,3332.379851270272,-5970.078669477963,0,0
11942.425,3328.2434763023443,-5967.993607116911,0,0
11952.4375,3324.6862893062753,-5964.97137519892,0,0
11962.45,3320.5386621426665,-5962.371038383341,0,0
11972.4625,3316.969334978837,-5959.661051434243,0,0
11982.475,3313.1418506811033,-5956.727337856066,0,0
11992.4875,3309.3784813035672,-5954.095788245698,0,0
12002.5,3305.235749116309,-5951.004820479684,0,0
12012.5125,3301.6169143348425,-5948.649601712137,0,0
12022.525,3297.544554029985,-5945.792456053999,0,0
12032.5375,3293.614358166513,-5943.165321699867,0,0
12042.55,3289.881008533615,-5940.3767466537165,0,0
12052.5625,3286.1285354669017,-5937.478765945713,0,0
12062.575,3282.3991424938818,-5934.541334979044,0,0
12072.5875,3278.3312306464695,-5932.179903605126,0,0
12082.6,3274.880577759214,-5929.290955604506,0,0
12092.6125,3271.0948123749063,-5926.54340553334,0,0
12102.625,3267.033700229709,-5923.556980920831,0,0
12112.6375,3263.6792290183084,-5920.835435393199,0,0
12122.65,3259.657902016226,-5918.097238174236,0,0
12132.6625,3255.7274579037244,-5915.416990198774,0,0
12142.675,3252.201433421353,-5912.457103507491,0,0
12152.6875,3248.558651427214,-5909.836074734369,0,0
12162.7,3244.972707886738,-5906.880092294045,0,0
12172.7125,3241.2541488999336,-5904.358514010443,0,0
12182.725,3237.5713023571384,-5901.574542416613,0,0
12192.7375,3233.896318960966,-5898.673247655799,0,0
12202.75,3230.2444730345196,-5896.03025367387,0,0
12212.7625,3226.603339967651,-5893.2290874806085,0,0
12222.775,3222.8831204738185,-5890.848287823279,0,0
12232.7875,3219.3643351287606,-5887.826237418147,0,0
12242.8,3215.706303606384,-5885.16050086152,0,0
12252.8125,3212.013106638087,-5882.431702710199,0,0
12262.825,3208.3162255363195,-5879.625509977982,0,0
12272.8375,3204.58152490959,-5876.829933081713,0,0
12282.85,3200.8356609438,-5874.243977495387,0,0
12292.8625,3197.1091067699376,-5871.584672228833,0,0
12302.875,3193.586280199683,-5868.450511745646,0,0
12312.8875,3189.837217887152,-5865.825053761527,0,0
12322.9,3186.427461128906,-5863.031938867564,0,0
12332.9125,3182.526210482518,-5860.497077987807,0,0
12342.925,3178.949109646122,-5857.967654384033,0,0
12352.9375,3175.172985285083,-5854.968296014888,0,0
12362.95,3171.990321968066,-5852.211061593891,0,0
12372.9625,3168.08292628201,-5849.558389150288,0,0
12382.975,3164.3893854329376,-5846.536875886115,0,0
12392.9875,3160.9782401059642,-5843.725727851203,0,0
12403.0,3157.1296762678326,-5841.212787292066,0,0
12413.0125,3153.581244852619,-5838.346059213361,0,0
12423.025,3150.262876334719,-5835.441755128924,0,0
12433.0375,3146.66927087515,-5832.878880346698,0,0
12443.05,3142.9961610080823,-5829.9660970684945,0,0
12453.0625,3139.3680881817677,-5827.299380058372,0,0
12463.075,3135.8528754437957,-5824.105414444563,0,0
12473.0875,3132.319330385748,-5821.765581195109,0,0
12483.1,3128.720961339915,-5818.573599213277,0,0
12493.1125,3125.437720763145,-5815.821482271162,0,0
12503.125,3122.079193967607,-5812.975765407838,0,0
12513.1375,3118.387794534595,-5809.778571420716,0,0
12523.15,3114.9008085233236,-5806.89056531151,0,0
12533.1625,3111.768779475709,-5804.20258222719,0,0
12543.175,3108.5914408021777,-5801.347664924446,0,0
12553.1875,3105.4231736328584,-5798.586261139082,0,0
12563.2,3102.2925222511017,-5796.0174788584,0,0
12573.2125,3099.3405106476243,-5793.318185092396,0,0
12583.225,3095.8829456302205,-5790.4449650835,0,0
12593.2375,3092.9338041116785,-5788.208691792137,0,0
12603.25,3089.47847170701,-5785.901801121878,0,0
12613.2625,3086.098919907435,-5783.498818808457,0,0
12623.275,3082.6010210624536,-5781.170389468922,0,0
12633.2875,3078.9964505901025,-5778.663713896044,0,0
12643.3,3075.5105041409856,-5775.928293864303,0,0
12653.3125,3072.009822186092,-5773.344499936902,0,0
12663.325,3068.6957238152054,-5770.775118755897,0,0
12673.3375,3064.9325886801435,-5768.0040490863175,0,0
12683.35,3061.73011188926,-5765.286028447847,0,0
12693.3625,3058.1320154136015,-5762.4225458773535,0,0
12703.375,3054.7111347978102,-5759.99157423249,0,0
12713.3875,3051.4141498930308,-5757.337795442063,0,0
12723.4,3048.0047950261787,-5754.613018609613,0,0
12733.4125,3044.6884904535086,-5752.013003573935,0,0
12743.425,3041.2860556797223,-5749.137073356222,0,0
12753.4375,3037.9526163558335,-5746.633496920438,0,0
12763.45,3034.7673687905167,-5743.889672557243,0,0
12773.4625,3031.313501497928,-5740.909084751429,0,0
12783.475,3027.992411112436,-5738.7332710487,0,0
12793.4875,3024.712501168432,-5735.828724028508,0,0
12803.5,3021.154417423342,-5733.215356692213,0,0
12813.5125,3017.993935109574,-5730.515140945326,0,0
12823.525,3014.8130723158397,-5727.784630381345,0,0
12833.5375,3011.4217386759506,-5725.234402069351,0,0
12843.55,3008.1835824342966,-5722.369002072781,0,0
12853.5625,3004.7030662165607,-5719.870606933499,0,0
12863.575,3001.440488324744,-5716.876527518448,0,0
12873.5875,2998.2291421785667,-5714.3867121283965,0,0
12883.6,2995.114752115234,-5711.483742463443,0,0
12893.6125,2991.8375568186316,-5708.923975330742,0,0
12903.625,2988.421912572692,-5706.352329212843,0,0
12913.6375,2985.4268797038076,-5703.905078188072,0,0
12923.65,2982.1735477635043,-5701.093322440979,0,0
12933.6625,2979.1154008576036,-5698.396499432034,0,0
12943.675,2975.848409523771,-5695.677721591797,0,0
12953.6875,2972.790271126915,-5693.0341058941285,0,0
12963.7,2969.6481991558544,-5690.5099711174225,0,0
12973.7125,2966.645218850476,-5687.562692390277,0,0
12983.725,2963.626756903536,-5685.057110381627,0,0
12993.7375,2960.740620966893,-5682.517064100462,0,0
13003.75,2957.5123426152213,-5680.1542389180095,0,0
13013.7625,2954.434557114147,-5677.635865498287,0,0
13023.775,2951.4298828968085,-5675.008127943566,0,0
13033.7875,2948.1690809619367,-5672.280013634983,0,0
13043.8,2945.082896542409,-5670.139423923071,0,0
13053.8125,2941.97664569589,-5667.761478590214,0,0
13063.825,2938.994015423685,-5665.138893780531,0,0
13073.8375,2935.7167076870373,-5662.655526386209,0,0
13083.85,2932.4356023704727,-5660.221787782902,0,0
13093.8625,2929.344210459229,-5657.958337185762,0,0
13103.875,2926.3438451780557,-5655.3860529977965,0,0
13113.8875,2922.7692075857726,-5652.8821573001715,0,0
13123.9,2919.6786668584173,-5650.401668413277,0,0
13133.9125,2916.2096057386966,-5647.965688099461,0,0
13143.925,2913.4115421509723,-5645.51854057172,0,0
13153.9375,2910.3169009595367,-5643.003718498838,0,0
13163.95,2906.8785465194787,-5640.419225987295,0,0
13173.9625,2903.9970322537515,-5637.915609364278,0,0
13183.975,2901.007104692594,-5635.172267469005,0,0
13193.9875,2897.69134377407,-5632.811552022146,0,0
13204.0,2894.6089484574895,-5630.1226009257125,0,0
13214.0125,2891.2900809446837,-5628.003984783383,0,0
13224.025,2888.1448077418036,-5625.454291616352,0,0
13234.0375,2885.1191563048287,-5622.847455019434,0,0
13244.05,2882.0226620084736,-5620.466331074757,0,0
13254.0625,2878.804045051999,-5617.878844203969,0,0
13264.075,2875.8508563138494,-5615.512776773825,0,0
13274.0875,2872.6892166172734,-5613.103202464187,0,0
13284.1,2869.730909233552,-5610.591283296916,0,0
13294.1125,2866.341921194953,-5608.375052326623,0,0
13304.125,2863.177205050428,-5605.806732258619,0,0
13314.1375,2859.884661718051,-5603.099501938815,0,0
13324.15,2856.8492648396764,-5600.7268895166935,0,0
13334.1625,2853.7550571469747,-5597.953183307785,0,0
13344.175,2850.8076839970286,-5595.763538302367,0,0
13354.1875,2847.4723329942144,-5593.1508850473165,0,0
13364.2,2844.328973826844,-5590.462069357497,0,0
13374.2125,2841.151920256361,-5588.10001121848,0,0
13384.225,2838.2302847228125,-5585.318320804703,0,0
13394.2375,2834.9600941047615,-5582.828916922015,0,0
13404.25,2831.9632108734513,-5580.09539159131,0,0
13414.2625,2828.646973758245,-5578.0436372895265,0,0
13424.275,2825.9625324560507,-5575.504010452664,0,0
13434.2875,2822.507394013437,-5572.626828594382,0,0
13444.3,2819.304170825777,-5570.2805080053995,0,0
13454.3125,2816.736539561945,-5567.776001974169,0,0
13464.325,2813.9606132512986,-5565.190872147194,0,0
13474.3375,2810.8804292100276,-5562.068648548965,0,0
13484.35,2807.6199054470235,-5559.84670614691,0,0
13494.3625,2804.448970840728,-5557.7540043291465,0,0
13504.375,2801.493753833055,-5555.4930439122845,0,0
13514.3875,2798.6035007617043,-5552.768806216873,0,0
13524.4,2795.85312253854,-5550.398275461973,0,0
13534.4125,2792.5325793753923,-5547.71685117619,0,0
13544.425,2789.647637031259,-5545.306286089636,0,0
13554.4375,2786.2715573931705,-5542.62659931353,0,0
13564.45,2783.3707347896307,-5540.061616974103,0,0
13574.4625,2780.1696490003496,-5537.515805263256,0,0
13584.475,2777.473767062721,-5534.838579197212,0,0
13594.4875,2774.50017373962,-5532.589358331208,0,0
13604.5,2771.4328058727074,-5530.272520984027,0,0
13614.5125,2768.3962315822714,-5527.387877059074,0,0
13624.525,2765.694884589001,-5524.740722043063,0,0
13634.5375,2762.8254083467327,-5522.542248309118,0,0
13644.55,2759.5733894255345,-5520.103193201871,0,0
13654.5625,2757.0045467783534,-5517.24936032322,0,0
13664.575,2753.6673092489004,-5515.143148615269,0,0
13674.5875,2750.97806601847,-5512.064751339937,0,0
13684.6,2748.0985020509343,-5510.235621636479,0,0
13694.6125,2744.994461037712,-5507.03152491259,0,0
13704.625,2742.1245496632428,-5505.310934062357,0,0
13714.6375,2739.4375693083066,-5501.959196935728,0,0
13724.65,2735.94536272252,-5499.773960815504,0,0
13734.6625,2733.513803549387,-5497.303150739725,0,0
13744.675,2730.6832702625184,-5494.860121938873,0,0
13754.6875,2727.280040910174,-5492.349297165789,0,0
13764.7,2724.5792696668354,-5489.900083662439,0,0
13774.7125,2721.8981842979547,-5487.463504176621,0,0
